Time (s);WE(1).Potential (V);Corrected time (s);Index;WE(1).Current (A);Current range;Cutoffs
102.125812742157;0.70709228515625;0;1;-9.5977783203125E-05;10 mA;WE(1).Potential < -0,1 V , WE(1).Potential < -0,1 V , WE(1).Potential < -0,1 V , WE(1).Potential < -0,1 V
102.325812741652;0.67169189453125;0.199999999495049;2;-9.58251953125E-05;10 mA;
102.525812741147;0.64605712890625;0.399999998990097;3;-9.564208984375E-05;10 mA;
102.725812740642;0.6256103515625;0.599999998485146;4;-9.58251953125E-05;10 mA;
102.925812740137;0.60821533203125;0.799999997980194;5;-9.6099853515625E-05;10 mA;
103.125812739632;0.59326171875;0.999999997475243;6;-9.57336425781249E-05;10 mA;
103.325812739127;0.57952880859375;1.19999999697029;7;-9.5947265625E-05;10 mA;
103.525812738622;0.56732177734375;1.39999999646534;8;-9.62219238281251E-05;10 mA;
103.725812738117;0.55572509765625;1.59999999596039;9;-9.600830078125E-05;10 mA;
103.925812737613;0.54534912109375;1.79999999545544;10;-9.58862304687499E-05;10 mA;
104.125812737108;0.5352783203125;1.99999999495049;11;-9.6099853515625E-05;10 mA;
104.325812736603;0.52581787109375;2.19999999444553;12;-9.6038818359375E-05;10 mA;
104.525812736098;0.51666259765625;2.39999999394058;13;-9.5703125E-05;10 mA;
104.725812735593;0.50811767578125;2.59999999343563;14;-9.5855712890625E-05;10 mA;
104.925812735088;0.4998779296875;2.79999999293068;15;-9.600830078125E-05;10 mA;
105.125812734583;0.49224853515625;2.99999999242573;16;-9.5947265625E-05;10 mA;
105.325812734078;0.484710693359375;3.19999999192078;17;-9.61914062499999E-05;10 mA;
105.525812733573;0.4774169921875;3.39999999141583;18;-9.58862304687499E-05;10 mA;
105.725812733068;0.470367431640625;3.59999999091087;19;-9.58251953125E-05;10 mA;
105.925812732563;0.463592529296875;3.79999999040592;20;-9.58862304687499E-05;10 mA;
106.125812732058;0.45697021484375;3.99999998990097;21;-9.58862304687499E-05;10 mA;
106.325812731553;0.45062255859375;4.19999998939602;22;-9.5977783203125E-05;10 mA;
106.525812731048;0.444427490234375;4.39999998889107;23;-9.58862304687499E-05;10 mA;
106.725812730543;0.43841552734375;4.59999998838612;24;-9.6160888671875E-05;10 mA;
106.925812730038;0.432586669921875;4.79999998788116;25;-9.61914062499999E-05;10 mA;
107.125812729533;0.426910400390625;4.99999998737621;26;-9.58251953125E-05;10 mA;
107.325812729028;0.421356201171875;5.19999998687126;27;-9.613037109375E-05;10 mA;
107.525812728523;0.415985107421875;5.39999998636631;28;-9.57336425781249E-05;10 mA;
107.725812728018;0.410736083984375;5.59999998586136;29;-9.613037109375E-05;10 mA;
107.925812727514;0.40557861328125;5.79999998535641;30;-9.5947265625E-05;10 mA;
108.125812727009;0.400604248046875;5.99999998485146;31;-9.63134765625E-05;10 mA;
108.325812726504;0.395721435546875;6.1999999843465;32;-9.6466064453125E-05;10 mA;
108.525812725999;0.3909912109375;6.39999998384155;33;-9.6405029296875E-05;10 mA;
108.725812725494;0.386383056640625;6.5999999833366;34;-9.6435546875E-05;10 mA;
108.925812724989;0.3819580078125;6.79999998283165;35;-9.58862304687499E-05;10 mA;
109.125812724484;0.37744140625;6.9999999823267;36;-9.625244140625E-05;10 mA;
109.325812723979;0.373077392578125;7.19999998182175;37;-9.6282958984375E-05;10 mA;
109.525812723474;0.36883544921875;7.3999999813168;38;-9.61914062499999E-05;10 mA;
109.725812722969;0.364654541015625;7.59999998081184;39;-9.6282958984375E-05;10 mA;
109.925812722464;0.36053466796875;7.79999998030689;40;-9.58862304687499E-05;10 mA;
110.125812721959;0.356597900390625;7.99999997980194;41;-9.6435546875E-05;10 mA;
110.325812721454;0.3526611328125;8.19999997929699;42;-9.64965820312499E-05;10 mA;
110.525812720949;0.3487548828125;8.39999997879204;43;-9.66491699218749E-05;10 mA;
110.725812720444;0.344970703125;8.59999997828709;44;-9.63134765625E-05;10 mA;
110.925812719939;0.34124755859375;8.79999997778214;45;-9.64965820312499E-05;10 mA;
111.125812719434;0.33758544921875;8.99999997727718;46;-9.64965820312499E-05;10 mA;
111.325812718929;0.333984375;9.19999997677223;47;-9.64965820312499E-05;10 mA;
111.525812718424;0.330413818359375;9.39999997626728;48;-9.6435546875E-05;10 mA;
111.725812717919;0.32696533203125;9.59999997576233;49;-9.65576171875E-05;10 mA;
111.925812717414;0.323486328125;9.79999997525738;50;-9.65576171875E-05;10 mA;
112.12581271691;0.320098876953125;9.99999997475243;51;-9.62219238281251E-05;10 mA;
112.325812716405;0.31683349609375;10.1999999742475;52;-9.6435546875E-05;10 mA;
112.5258127159;0.313507080078125;10.3999999737425;53;-9.69848632812501E-05;10 mA;
112.725812715395;0.310211181640625;10.5999999732376;54;-9.63439941406249E-05;10 mA;
112.92581271489;0.3070068359375;10.7999999727326;55;-9.65270996093751E-05;10 mA;
113.125812714385;0.3038330078125;10.9999999722277;56;-9.6099853515625E-05;10 mA;
113.32581271388;0.300689697265625;11.1999999717227;57;-9.65576171875E-05;10 mA;
113.525812713375;0.297576904296875;11.3999999712178;58;-9.68322753906251E-05;10 mA;
113.72581271287;0.29449462890625;11.5999999707128;59;-9.6588134765625E-05;10 mA;
113.925812712365;0.29144287109375;11.7999999702079;60;-9.674072265625E-05;10 mA;
114.12581271186;0.28839111328125;11.9999999697029;61;-9.6038818359375E-05;10 mA;
114.325812711355;0.285400390625;12.199999969198;62;-9.64965820312499E-05;10 mA;
114.52581271085;0.28240966796875;12.399999968693;63;-9.60693359375001E-05;10 mA;
114.725812710345;0.27947998046875;12.5999999681881;64;-9.63439941406249E-05;10 mA;
114.92581270984;0.276519775390625;12.7999999676831;65;-9.6710205078125E-05;10 mA;
115.125812709335;0.27362060546875;12.9999999671782;66;-9.6466064453125E-05;10 mA;
115.32581270883;0.270721435546875;13.1999999666732;67;-9.625244140625E-05;10 mA;
115.525812708325;0.267822265625;13.3999999661683;68;-9.60693359375001E-05;10 mA;
115.72581270782;0.265045166015625;13.5999999656633;69;-9.64965820312499E-05;10 mA;
115.925812707315;0.262176513671875;13.7999999651583;70;-9.62219238281251E-05;10 mA;
116.125812706811;0.259307861328125;13.9999999646534;71;-9.6466064453125E-05;10 mA;
116.325812706306;0.256500244140625;14.1999999641484;72;-9.661865234375E-05;10 mA;
116.525812705801;0.25372314453125;14.3999999636435;73;-9.66491699218749E-05;10 mA;
116.725812705296;0.250946044921875;14.5999999631385;74;-9.6466064453125E-05;10 mA;
116.925812704791;0.248199462890625;14.7999999626336;75;-9.65270996093751E-05;10 mA;
117.125812704286;0.245391845703125;14.9999999621286;76;-9.65270996093751E-05;10 mA;
117.325812703781;0.242645263671875;15.1999999616237;77;-9.6588134765625E-05;10 mA;
117.525812703276;0.239898681640625;15.3999999611187;78;-9.65576171875E-05;10 mA;
117.725812702771;0.23712158203125;15.5999999606138;79;-9.69543457031249E-05;10 mA;
117.925812702266;0.234375;15.7999999601088;80;-9.63134765625E-05;10 mA;
118.125812701761;0.231658935546875;15.9999999596039;81;-9.63745117187501E-05;10 mA;
118.325812701256;0.22894287109375;16.1999999590989;82;-9.6588134765625E-05;10 mA;
118.525812700751;0.226226806640625;16.399999958594;83;-9.674072265625E-05;10 mA;
118.725812700246;0.2235107421875;16.599999958089;84;-9.64965820312499E-05;10 mA;
118.925812699741;0.220794677734375;16.7999999575841;85;-9.61914062499999E-05;10 mA;
119.125812699236;0.2181396484375;16.9999999570791;86;-9.6771240234375E-05;10 mA;
119.325812698731;0.215484619140625;17.1999999565742;87;-9.65576171875E-05;10 mA;
119.525812698226;0.212799072265625;17.3999999560692;88;-9.65270996093751E-05;10 mA;
119.725812697721;0.2100830078125;17.5999999555643;89;-9.63439941406249E-05;10 mA;
119.925812697216;0.207427978515625;17.7999999550593;90;-9.64965820312499E-05;10 mA;
120.125812696711;0.204742431640625;17.9999999545544;91;-9.674072265625E-05;10 mA;
120.325812696207;0.202056884765625;18.1999999540494;92;-9.625244140625E-05;10 mA;
120.525812695702;0.19940185546875;18.3999999535445;93;-9.65270996093751E-05;10 mA;
120.725812695197;0.19671630859375;18.5999999530395;94;-9.6435546875E-05;10 mA;
120.925812694692;0.194061279296875;18.7999999525346;95;-9.63745117187501E-05;10 mA;
121.125812694187;0.19134521484375;18.9999999520296;96;-9.65576171875E-05;10 mA;
121.325812693682;0.18865966796875;19.1999999515247;97;-9.6466064453125E-05;10 mA;
121.525812693177;0.186004638671875;19.3999999510197;98;-9.6405029296875E-05;10 mA;
121.725812692672;0.183349609375;19.5999999505148;99;-9.64965820312499E-05;10 mA;
121.925812692167;0.180694580078125;19.7999999500098;100;-9.62219238281251E-05;10 mA;
122.125812691662;0.178009033203125;19.9999999495049;101;-9.6435546875E-05;10 mA;
122.325812691157;0.17535400390625;20.1999999489999;102;-9.661865234375E-05;10 mA;
122.525812690652;0.17266845703125;20.399999948495;103;-9.64965820312499E-05;10 mA;
122.725812690147;0.1700439453125;20.59999994799;104;-9.63745117187501E-05;10 mA;
122.925812689642;0.167388916015625;20.799999947485;105;-9.64965820312499E-05;10 mA;
123.125812689137;0.16473388671875;20.9999999469801;106;-9.6466064453125E-05;10 mA;
123.325812688632;0.162078857421875;21.1999999464751;107;-9.6099853515625E-05;10 mA;
123.525812688127;0.15936279296875;21.3999999459702;108;-9.64965820312499E-05;10 mA;
123.725812687622;0.15667724609375;21.5999999454652;109;-9.65270996093751E-05;10 mA;
123.925812687117;0.15399169921875;21.7999999449603;110;-9.64965820312499E-05;10 mA;
124.125812686612;0.151336669921875;21.9999999444553;111;-9.62219238281251E-05;10 mA;
124.325812686107;0.148651123046875;22.1999999439504;112;-9.65576171875E-05;10 mA;
124.525812685603;0.145965576171875;22.3999999434454;113;-9.6588134765625E-05;10 mA;
124.725812685098;0.143310546875;22.5999999429405;114;-9.661865234375E-05;10 mA;
124.925812684593;0.140594482421875;22.7999999424355;115;-9.63134765625E-05;10 mA;
125.125812684088;0.137908935546875;22.9999999419306;116;-9.66491699218749E-05;10 mA;
125.325812683583;0.13525390625;23.1999999414256;117;-9.63134765625E-05;10 mA;
125.525812683078;0.132537841796875;23.3999999409207;118;-9.63439941406249E-05;10 mA;
125.725812682573;0.12982177734375;23.5999999404157;119;-9.674072265625E-05;10 mA;
125.925812682068;0.127105712890625;23.7999999399108;120;-9.674072265625E-05;10 mA;
126.125812681563;0.124359130859375;23.9999999394058;121;-9.66491699218749E-05;10 mA;
126.325812681058;0.121673583984375;24.1999999389009;122;-9.64965820312499E-05;10 mA;
126.525812680553;0.118896484375;24.3999999383959;123;-9.65576171875E-05;10 mA;
126.725812680048;0.11614990234375;24.599999937891;124;-9.64965820312499E-05;10 mA;
126.925812679543;0.1134033203125;24.799999937386;125;-9.65270996093751E-05;10 mA;
127.125812679038;0.110626220703125;24.9999999368811;126;-9.6771240234375E-05;10 mA;
127.325812678533;0.107879638671875;25.1999999363761;127;-9.686279296875E-05;10 mA;
127.525812678028;0.105133056640625;25.3999999358712;128;-9.63745117187501E-05;10 mA;
127.725812677523;0.102386474609375;25.5999999353662;129;-9.66796875000001E-05;10 mA;
127.925812677018;0.099609375;25.7999999348613;130;-9.69848632812501E-05;10 mA;
128.125812676513;0.096832275390625;25.9999999343563;131;-9.6405029296875E-05;10 mA;
128.325812676008;0.094024658203125;26.1999999338514;132;-9.674072265625E-05;10 mA;
128.525812675504;0.09124755859375;26.3999999333464;133;-9.686279296875E-05;10 mA;
128.725812674999;0.08843994140625;26.5999999328415;134;-9.6282958984375E-05;10 mA;
128.925812674494;0.085662841796875;26.7999999323365;135;-9.686279296875E-05;10 mA;
129.125812673989;0.082855224609375;26.9999999318316;136;-9.64965820312499E-05;10 mA;
129.325812673484;0.08001708984375;27.1999999313266;137;-9.65270996093751E-05;10 mA;
129.525812672979;0.077239990234375;27.3999999308217;138;-9.6923828125E-05;10 mA;
129.725812672474;0.074371337890625;27.5999999303167;139;-9.63745117187501E-05;10 mA;
129.925812671969;0.071563720703125;27.7999999298117;140;-9.68017578125E-05;10 mA;
130.125812671464;0.0687255859375;27.9999999293068;141;-9.65270996093751E-05;10 mA;
130.325812670959;0.065887451171875;28.1999999288018;142;-9.66796875000001E-05;10 mA;
130.525812670454;0.0631103515625;28.3999999282969;143;-9.6435546875E-05;10 mA;
130.725812669949;0.060272216796875;28.5999999277919;144;-9.674072265625E-05;10 mA;
130.925812669444;0.057464599609375;28.799999927287;145;-9.6466064453125E-05;10 mA;
131.125812668939;0.05462646484375;28.999999926782;146;-9.63134765625E-05;10 mA;
131.325812668434;0.0517578125;29.1999999262771;147;-9.65270996093751E-05;10 mA;
131.525812667929;0.0488983154296875;29.3999999257721;148;-9.63745117187501E-05;10 mA;
131.725812667424;0.0460662841796875;29.5999999252672;149;-9.65270996093751E-05;10 mA;
131.925812666919;0.0431915283203125;29.7999999247622;150;-9.6435546875E-05;10 mA;
132.125812666414;0.0403594970703125;29.9999999242573;151;-9.6282958984375E-05;10 mA;
132.325812665909;0.0375091552734375;30.1999999237523;152;-9.65576171875E-05;10 mA;
132.525812665404;0.0346435546875;30.3999999232474;153;-9.674072265625E-05;10 mA;
132.7258126649;0.0317657470703125;30.5999999227424;154;-9.63134765625E-05;10 mA;
132.925812664395;0.028948974609375;30.7999999222375;155;-9.6435546875E-05;10 mA;
133.12581266389;0.026055908203125;30.9999999217325;156;-9.71374511718751E-05;10 mA;
133.325812663385;0.0232177734375;31.1999999212276;157;-9.6588134765625E-05;10 mA;
133.52581266288;0.0203521728515625;31.3999999207226;158;-9.65270996093751E-05;10 mA;
133.725812662375;0.01749267578125;31.5999999202177;159;-9.661865234375E-05;10 mA;
133.92581266187;0.01463623046875;31.7999999197127;160;-9.625244140625E-05;10 mA;
134.125812661365;0.0118255615234375;31.9999999192078;161;-9.66491699218749E-05;10 mA;
134.32581266086;0.0089874267578125;32.1999999187028;162;-9.65576171875E-05;10 mA;
134.525812660355;0.00612792968750001;32.3999999181979;163;-9.65576171875E-05;10 mA;
134.72581265985;0.0033111572265625;32.5999999176929;164;-9.66491699218749E-05;10 mA;
134.925812659345;0.000479125976562494;32.799999917188;165;-9.661865234375E-05;10 mA;
135.12581265884;-0.0023651123046875;32.999999916683;166;-9.6588134765625E-05;10 mA;
135.325812658335;-0.0052337646484375;33.1999999161781;167;-9.674072265625E-05;10 mA;
135.52581265783;-0.0080535888671875;33.3999999156731;168;-9.6588134765625E-05;10 mA;
135.725812657325;-0.010919189453125;33.5999999151682;169;-9.6435546875E-05;10 mA;
135.92581265682;-0.0137603759765625;33.7999999146632;170;-9.6435546875E-05;10 mA;
136.125812656315;-0.016607666015625;33.9999999141583;171;-9.66796875000001E-05;10 mA;
136.32581265581;-0.0194305419921875;34.1999999136533;172;-9.65576171875E-05;10 mA;
136.525812655305;-0.022235107421875;34.3999999131483;173;-9.65270996093751E-05;10 mA;
136.725812654801;-0.0250762939453125;34.5999999126434;174;-9.6435546875E-05;10 mA;
136.925812654296;-0.0278961181640625;34.7999999121384;175;-9.6893310546875E-05;10 mA;
137.125812653791;-0.030706787109375;34.9999999116335;176;-9.6771240234375E-05;10 mA;
137.325812653286;-0.033502197265625;35.1999999111285;177;-9.6893310546875E-05;10 mA;
137.525812652781;-0.0363037109375;35.3999999106236;178;-9.6466064453125E-05;10 mA;
137.725812652276;-0.039111328125;35.5999999101186;179;-9.6405029296875E-05;10 mA;
137.925812651771;-0.0419403076171875;35.7999999096137;180;-9.7015380859375E-05;10 mA;
138.125812651266;-0.0446807861328125;35.9999999091087;181;-9.64965820312499E-05;10 mA;
138.325812650761;-0.0474456787109375;36.1999999086038;182;-9.6466064453125E-05;10 mA;
138.525812650256;-0.050201416015625;36.3999999080988;183;-9.686279296875E-05;10 mA;
138.725812649751;-0.052947998046875;36.5999999075939;184;-9.6435546875E-05;10 mA;
138.925812649246;-0.055694580078125;36.7999999070889;185;-9.6405029296875E-05;10 mA;
139.125812648741;-0.058380126953125;36.999999906584;186;-9.6771240234375E-05;10 mA;
139.325812648236;-0.061126708984375;37.199999906079;187;-9.64965820312499E-05;10 mA;
139.525812647731;-0.06378173828125;37.3999999055741;188;-9.65576171875E-05;10 mA;
139.725812647226;-0.066497802734375;37.5999999050691;189;-9.66491699218749E-05;10 mA;
139.925812646721;-0.0692138671875;37.7999999045642;190;-9.6710205078125E-05;10 mA;
140.125812646216;-0.071868896484375;37.9999999040592;191;-9.66796875000001E-05;10 mA;
140.325812645711;-0.074554443359375;38.1999999035543;192;-9.65576171875E-05;10 mA;
140.525812645206;-0.077178955078125;38.3999999030493;193;-9.64965820312499E-05;10 mA;
140.725812644701;-0.07977294921875;38.5999999025444;194;-9.65576171875E-05;10 mA;
140.925812644197;-0.0823974609375;38.7999999020394;195;-9.6435546875E-05;10 mA;
141.125812643692;-0.0849609375;38.9999999015345;196;-9.6588134765625E-05;10 mA;
141.325812643187;-0.0875244140625;39.1999999010295;197;-9.674072265625E-05;10 mA;
141.525812642682;-0.090087890625;39.3999999005246;198;-9.65270996093751E-05;10 mA;
141.725812642177;-0.092620849609375;39.5999999000196;199;-9.66491699218749E-05;10 mA;
141.925812641672;-0.095123291015625;39.7999998995147;200;-9.6588134765625E-05;10 mA;
142.125812641167;-0.097564697265625;39.9999998990097;201;-9.65270996093751E-05;10 mA;
142.325812640662;-0.100067138671875;40.1999998985048;202;-9.686279296875E-05;10 mA;WE(1).Potential < -0,1 V
142.525812640157;-0.102447509765625;40.3999998979998;203;-9.674072265625E-05;10 mA;WE(1).Potential < -0,1 V
142.725812639652;-0.1048583984375;40.5999998974949;204;-9.661865234375E-05;10 mA;WE(1).Potential < -0,1 V
142.925812639147;-0.107269287109375;40.7999998969899;205;-9.674072265625E-05;10 mA;WE(1).Potential < -0,1 V
