Time (s);WE(1).Potential (V);Corrected time (s);Index;WE(1).Current (A);Current range;Cutoffs
65.9257868335534;0.073974609375;0;1;0.00010748291015625;10 mA;WE(1).Potential > 0,85 V , WE(1).Potential > 0,85 V , WE(1).Potential > 0,85 V , WE(1).Potential > 0,85 V
66.1257868330484;0.0947265625;0.199999999495049;2;0.00010791015625;10 mA;
66.3257868325435;0.111236572265625;0.399999998990097;3;0.00010797119140625;10 mA;
66.5257868320385;0.12542724609375;0.599999998485146;4;0.000108001708984375;10 mA;
66.7257868315336;0.137939453125;0.799999997980194;5;0.000108062744140625;10 mA;
66.9257868310286;0.149261474609375;0.999999997475243;6;0.00010797119140625;10 mA;
67.1257868305237;0.16192626953125;1.19999999697029;7;0.0001080322265625;10 mA;
67.3257868300187;0.171417236328125;1.39999999646534;8;0.0001080322265625;10 mA;
67.5257868295138;0.180084228515625;1.59999999596039;9;0.00010833740234375;10 mA;
67.7257868290088;0.18829345703125;1.79999999545544;10;0.000108062744140625;10 mA;
67.9257868285039;0.19610595703125;1.99999999495049;11;0.0001082763671875;10 mA;
68.1257868279989;0.203460693359375;2.19999999444553;12;0.00010833740234375;10 mA;
68.325786827494;0.210479736328125;2.39999999394058;13;0.0001082763671875;10 mA;
68.525786826989;0.217254638671875;2.59999999343563;14;0.000108062744140625;10 mA;
68.7257868264841;0.2237548828125;2.79999999293068;15;0.000108123779296875;10 mA;
68.9257868259791;0.23004150390625;2.99999999242573;16;0.0001080322265625;10 mA;
69.1257868254742;0.23614501953125;3.19999999192078;17;0.000108001708984375;10 mA;
69.3257868249692;0.2420654296875;3.39999999141583;18;0.00010809326171875;10 mA;
69.5257868244643;0.247802734375;3.59999999091087;19;0.000108123779296875;10 mA;
69.7257868239593;0.2532958984375;3.79999999040592;20;0.000108123779296875;10 mA;
69.9257868234544;0.2586669921875;3.99999998990097;21;0.000108184814453125;10 mA;
70.1257868229494;0.264007568359375;4.19999998939602;22;0.000108062744140625;10 mA;
70.3257868224445;0.269195556640625;4.39999998889107;23;0.00010797119140625;10 mA;
70.5257868219395;0.274322509765625;4.59999998838612;24;0.00010784912109375;10 mA;
70.7257868214346;0.279327392578125;4.79999998788116;25;0.0001080322265625;10 mA;
70.9257868209296;0.284149169921875;4.99999998737621;26;0.00010845947265625;10 mA;
71.1257868204247;0.2889404296875;5.19999998687126;27;0.00010784912109375;10 mA;
71.3257868199197;0.293670654296875;5.39999998636631;28;0.000108184814453125;10 mA;
71.5257868194147;0.29827880859375;5.59999998586136;29;0.000108184814453125;10 mA;
71.7257868189098;0.3028564453125;5.79999998535641;30;0.000108062744140625;10 mA;
71.9257868184048;0.307342529296875;5.99999998485146;31;0.000108367919921875;10 mA;
72.1257868178999;0.311737060546875;6.1999999843465;32;0.000108184814453125;10 mA;
72.3257868173949;0.3160400390625;6.39999998384155;33;0.000108123779296875;10 mA;
72.52578681689;0.3203125;6.5999999833366;34;0.0001080322265625;10 mA;
72.725786816385;0.32452392578125;6.79999998283165;35;0.0001082763671875;10 mA;
72.9257868158801;0.328704833984375;6.9999999823267;36;0.000108245849609375;10 mA;
73.1257868153751;0.332794189453125;7.19999998182175;37;0.000108184814453125;10 mA;
73.3257868148702;0.33685302734375;7.3999999813168;38;0.0001082763671875;10 mA;
73.5257868143652;0.340789794921875;7.59999998081184;39;0.000108489990234375;10 mA;
73.7257868138603;0.3447265625;7.79999998030689;40;0.0001083984375;10 mA;
73.9257868133553;0.348602294921875;7.99999997980194;41;0.000107940673828125;10 mA;
74.1257868128504;0.352386474609375;8.19999997929699;42;0.000108184814453125;10 mA;
74.3257868123454;0.356170654296875;8.39999997879204;43;0.00010845947265625;10 mA;
74.5257868118405;0.359893798828125;8.59999997828709;44;0.00010784912109375;10 mA;
74.7257868113355;0.36358642578125;8.79999997778214;45;0.0001082763671875;10 mA;
74.9257868108306;0.367279052734375;8.99999997727718;46;0.0001083984375;10 mA;
75.1257868103256;0.370880126953125;9.19999997677223;47;0.000108154296875;10 mA;
75.3257868098207;0.374481201171875;9.39999997626728;48;0.0001082763671875;10 mA;
75.5257868093157;0.378021240234375;9.59999997576233;49;0.00010821533203125;10 mA;
75.7257868088108;0.38153076171875;9.79999997525738;50;0.0001080322265625;10 mA;
75.9257868083058;0.385009765625;9.99999997475243;51;0.00010833740234375;10 mA;
76.1257868078009;0.38848876953125;10.1999999742475;52;0.00010821533203125;10 mA;
76.3257868072959;0.391937255859375;10.3999999737425;53;0.000108001708984375;10 mA;
76.525786806791;0.39532470703125;10.5999999732376;54;0.00010833740234375;10 mA;
76.725786806286;0.39874267578125;10.7999999727326;55;0.0001082763671875;10 mA;
76.9257868057811;0.402069091796875;10.9999999722277;56;0.000108154296875;10 mA;
77.1257868052761;0.40545654296875;11.1999999717227;57;0.000108245849609375;10 mA;
77.3257868047712;0.408782958984375;11.3999999712178;58;0.00010809326171875;10 mA;
77.5257868042662;0.412139892578125;11.5999999707128;59;0.00010791015625;10 mA;
77.7257868037613;0.415496826171875;11.7999999702079;60;0.000108154296875;10 mA;
77.9257868032563;0.41876220703125;11.9999999697029;61;0.00010833740234375;10 mA;
78.1257868027513;0.422088623046875;12.199999969198;62;0.000107879638671875;10 mA;
78.3257868022464;0.42535400390625;12.399999968693;63;0.000108184814453125;10 mA;
78.5257868017414;0.428680419921875;12.5999999681881;64;0.0001082763671875;10 mA;
78.7257868012365;0.43194580078125;12.7999999676831;65;0.000108428955078125;10 mA;
78.9257868007315;0.43524169921875;12.9999999671782;66;0.00010845947265625;10 mA;
79.1257868002266;0.43853759765625;13.1999999666732;67;0.00010833740234375;10 mA;
79.3257867997216;0.441864013671875;13.3999999661683;68;0.000108245849609375;10 mA;
79.5257867992167;0.445159912109375;13.5999999656633;69;0.000108184814453125;10 mA;
79.7257867987117;0.44842529296875;13.7999999651583;70;0.000108184814453125;10 mA;
79.9257867982068;0.451690673828125;13.9999999646534;71;0.000108154296875;10 mA;
80.1257867977018;0.45501708984375;14.1999999641484;72;0.00010833740234375;10 mA;
80.3257867971969;0.45831298828125;14.3999999636435;73;0.000108154296875;10 mA;
80.5257867966919;0.461639404296875;14.5999999631385;74;0.000108245849609375;10 mA;
80.725786796187;0.4649658203125;14.7999999626336;75;0.000108489990234375;10 mA;
80.925786795682;0.468292236328125;14.9999999621286;76;0.00010809326171875;10 mA;
81.1257867951771;0.471588134765625;15.1999999616237;77;0.000108428955078125;10 mA;
81.3257867946721;0.474945068359375;15.3999999611187;78;0.000108306884765625;10 mA;
81.5257867941672;0.478302001953125;15.5999999606138;79;0.000108367919921875;10 mA;
81.7257867936622;0.48162841796875;15.7999999601088;80;0.000108306884765625;10 mA;
81.9257867931573;0.4849853515625;15.9999999596039;81;0.000108306884765625;10 mA;
82.1257867926523;0.488372802734375;16.1999999590989;82;0.0001083984375;10 mA;
82.3257867921474;0.49176025390625;16.399999958594;83;0.000108673095703125;10 mA;
82.5257867916424;0.49517822265625;16.599999958089;84;0.000108489990234375;10 mA;
82.7257867911375;0.498565673828125;16.7999999575841;85;0.000108367919921875;10 mA;
82.9257867906325;0.501708984375;16.9999999570791;86;0.000108123779296875;10 mA;
83.1257867901276;0.50537109375;17.1999999565742;87;0.0001083984375;10 mA;
83.3257867896226;0.50872802734375;17.3999999560692;88;0.000108245849609375;10 mA;
83.5257867891177;0.5120849609375;17.5999999555643;89;0.000108428955078125;10 mA;
83.7257867886127;0.5157470703125;17.7999999550593;90;0.000108367919921875;10 mA;
83.9257867881078;0.51910400390625;17.9999999545544;91;0.0001085205078125;10 mA;
84.1257867876028;0.52276611328125;18.1999999540494;92;0.000108306884765625;10 mA;
84.3257867870979;0.526123046875;18.3999999535445;93;0.0001082763671875;10 mA;
84.5257867865929;0.52947998046875;18.5999999530395;94;0.000107940673828125;10 mA;
84.725786786088;0.53314208984375;18.7999999525346;95;0.00010833740234375;10 mA;
84.925786785583;0.53680419921875;18.9999999520296;96;0.000108367919921875;10 mA;
85.125786785078;0.5401611328125;19.1999999515247;97;0.000108062744140625;10 mA;
85.3257867845731;0.5438232421875;19.3999999510197;98;0.00010894775390625;10 mA;
85.5257867840681;0.5474853515625;19.5999999505148;99;0.000108642578125;10 mA;
85.7257867835632;0.55084228515625;19.7999999500098;100;0.00010833740234375;10 mA;
85.9257867830582;0.55450439453125;19.9999999495049;101;0.00010809326171875;10 mA;
86.1257867825533;0.55816650390625;20.1999999489999;102;0.00010858154296875;10 mA;
86.3257867820483;0.56182861328125;20.399999948495;103;0.0001082763671875;10 mA;
86.5257867815434;0.56549072265625;20.59999994799;104;0.00010821533203125;10 mA;
86.7257867810384;0.56915283203125;20.799999947485;105;0.00010809326171875;10 mA;
86.9257867805335;0.57281494140625;20.9999999469801;106;0.000108184814453125;10 mA;
87.1257867800285;0.57647705078125;21.1999999464751;107;0.0001083984375;10 mA;
87.3257867795236;0.58013916015625;21.3999999459702;108;0.0001087646484375;10 mA;
87.5257867790186;0.58380126953125;21.5999999454652;109;0.00010870361328125;10 mA;
87.7257867785137;0.58746337890625;21.7999999449603;110;0.00010833740234375;10 mA;
87.9257867780087;0.5914306640625;21.9999999444553;111;0.000108612060546875;10 mA;
88.1257867775038;0.5950927734375;22.1999999439504;112;0.000108642578125;10 mA;
88.3257867769988;0.5987548828125;22.3999999434454;113;0.00010833740234375;10 mA;
88.5257867764939;0.6024169921875;22.5999999429405;114;0.00010821533203125;10 mA;
88.7257867759889;0.60638427734375;22.7999999424355;115;0.0001082763671875;10 mA;
88.925786775484;0.61004638671875;22.9999999419306;116;0.00010821533203125;10 mA;
89.125786774979;0.614013671875;23.1999999414256;117;0.000108489990234375;10 mA;
89.3257867744741;0.61767578125;23.3999999409207;118;0.0001087646484375;10 mA;
89.5257867739691;0.62164306640625;23.5999999404157;119;0.000108306884765625;10 mA;
89.7257867734642;0.62530517578125;23.7999999399108;120;0.0001082763671875;10 mA;
89.9257867729592;0.6292724609375;23.9999999394058;121;0.00010882568359375;10 mA;
90.1257867724543;0.63232421875;24.1999999389009;122;0.000108673095703125;10 mA;
90.3257867719493;0.635986328125;24.3999999383959;123;0.000108154296875;10 mA;
90.5257867714444;0.63995361328125;24.599999937891;124;0.0001085205078125;10 mA;
90.7257867709394;0.64361572265625;24.799999937386;125;0.000108367919921875;10 mA;
90.9257867704345;0.6475830078125;24.9999999368811;126;0.000108306884765625;10 mA;
91.1257867699295;0.65155029296875;25.1999999363761;127;0.00010833740234375;10 mA;
91.3257867694246;0.655517578125;25.3999999358712;128;0.000108306884765625;10 mA;
91.5257867689196;0.65948486328125;25.5999999353662;129;0.00010858154296875;10 mA;
91.7257867684147;0.6634521484375;25.7999999348613;130;0.000108367919921875;10 mA;
91.9257867679097;0.66741943359375;25.9999999343563;131;0.000108551025390625;10 mA;
92.1257867674047;0.67138671875;26.1999999338514;132;0.00010858154296875;10 mA;
92.3257867668998;0.67535400390625;26.3999999333464;133;0.0001083984375;10 mA;
92.5257867663948;0.6793212890625;26.5999999328415;134;0.000108306884765625;10 mA;
92.7257867658899;0.68328857421875;26.7999999323365;135;0.000108367919921875;10 mA;
92.9257867653849;0.687255859375;26.9999999318316;136;0.000108001708984375;10 mA;
93.12578676488;0.69122314453125;27.1999999313266;137;0.000108428955078125;10 mA;
93.325786764375;0.6951904296875;27.3999999308217;138;0.000108642578125;10 mA;
93.5257867638701;0.699462890625;27.5999999303167;139;0.000108673095703125;10 mA;
93.7257867633651;0.70343017578125;27.7999999298117;140;0.000108489990234375;10 mA;
93.9257867628602;0.7073974609375;27.9999999293068;141;0.000108489990234375;10 mA;
94.1257867623552;0.71136474609375;28.1999999288018;142;0.0001083984375;10 mA;
94.3257867618503;0.71563720703125;28.3999999282969;143;0.00010833740234375;10 mA;
94.5257867613453;0.7196044921875;28.5999999277919;144;0.000108551025390625;10 mA;
94.7257867608404;0.72357177734375;28.799999927287;145;0.000108184814453125;10 mA;
94.9257867603354;0.72784423828125;28.999999926782;146;0.000108428955078125;10 mA;
95.1257867598305;0.7318115234375;29.1999999262771;147;0.00010833740234375;10 mA;
95.3257867593255;0.73577880859375;29.3999999257721;148;0.000108245849609375;10 mA;
95.5257867588206;0.73974609375;29.5999999252672;149;0.000108642578125;10 mA;
95.7257867583156;0.7440185546875;29.7999999247622;150;0.000108734130859375;10 mA;
95.9257867578107;0.74798583984375;29.9999999242573;151;0.0001085205078125;10 mA;
96.1257867573057;0.75225830078125;30.1999999237523;152;0.0001082763671875;10 mA;
96.3257867568008;0.7562255859375;30.3999999232474;153;0.0001080322265625;10 mA;
96.5257867562958;0.76019287109375;30.5999999227424;154;0.00010845947265625;10 mA;
96.7257867557909;0.76416015625;30.7999999222375;155;0.0001082763671875;10 mA;
96.9257867552859;0.7684326171875;30.9999999217325;156;0.000108367919921875;10 mA;
97.125786754781;0.77239990234375;31.1999999212276;157;0.000108154296875;10 mA;
97.325786754276;0.7763671875;31.3999999207226;158;0.000108367919921875;10 mA;
97.5257867537711;0.78033447265625;31.5999999202177;159;0.00010858154296875;10 mA;
97.7257867532661;0.7843017578125;31.7999999197127;160;0.000108612060546875;10 mA;
97.9257867527612;0.78826904296875;31.9999999192078;161;0.00010882568359375;10 mA;
98.1257867522562;0.792236328125;32.1999999187028;162;0.00010845947265625;10 mA;
98.3257867517513;0.79620361328125;32.3999999181979;163;0.0001085205078125;10 mA;
98.5257867512463;0.8001708984375;32.5999999176929;164;0.00010833740234375;10 mA;
98.7257867507413;0.8038330078125;32.799999917188;165;0.0001085205078125;10 mA;
98.9257867502364;0.80780029296875;32.999999916683;166;0.000108489990234375;10 mA;
99.1257867497314;0.811767578125;33.1999999161781;167;0.00010821533203125;10 mA;
99.3257867492265;0.8154296875;33.3999999156731;168;0.000108428955078125;10 mA;
99.5257867487215;0.81939697265625;33.5999999151682;169;0.00010882568359375;10 mA;
99.7257867482166;0.82305908203125;33.7999999146632;170;0.000108642578125;10 mA;
99.9257867477116;0.82672119140625;33.9999999141583;171;0.000108642578125;10 mA;
100.125786747207;0.83038330078125;34.1999999136533;172;0.000108428955078125;10 mA;
100.325786746702;0.83404541015625;34.3999999131483;173;0.00010858154296875;10 mA;
100.525786746197;0.83770751953125;34.5999999126434;174;0.000108642578125;10 mA;
100.725786745692;0.841064453125;34.7999999121384;175;0.000108551025390625;10 mA;
100.925786745187;0.8447265625;34.9999999116335;176;0.00010845947265625;10 mA;
101.125786744682;0.84808349609375;35.1999999111285;177;0.00010833740234375;10 mA;
101.325786744177;0.8514404296875;35.3999999106236;178;0.000108612060546875;10 mA;WE(1).Potential > 0,85 V
101.525786743672;0.85479736328125;35.5999999101186;179;0.000108154296875;10 mA;WE(1).Potential > 0,85 V
101.725786743167;0.85784912109375;35.7999999096137;180;0.000108245849609375;10 mA;WE(1).Potential > 0,85 V
101.925786742662;0.8612060546875;35.9999999091087;181;0.000108428955078125;10 mA;WE(1).Potential > 0,85 V
