Time (s);WE(1).Potential (V);Corrected time (s);Index;WE(1).Current (A);Current range;Cutoffs
196.114196504859;-0.012640380859375;0;1;5.5999755859375E-05;10 mA;WE(1).Potential > 0,85 V , WE(1).Potential > 0,85 V , WE(1).Potential > 0,85 V , WE(1).Potential > 0,85 V
196.314196504354;-0.002667236328125;0.199999999495049;2;5.59387207031251E-05;10 mA;
196.514196503849;0.0054656982421875;0.399999998990097;3;5.5877685546875E-05;10 mA;
196.714196503344;0.0126068115234375;0.599999998485146;4;5.615234375E-05;10 mA;
196.914196502839;0.0190460205078125;0.799999997980194;5;5.57861328125001E-05;10 mA;
197.114196502334;0.0249176025390625;0.999999997475243;6;5.59387207031251E-05;10 mA;
197.31419650183;0.0303924560546875;1.19999999697029;7;5.5816650390625E-05;10 mA;
197.514196501325;0.0355499267578125;1.39999999646534;8;5.6182861328125E-05;10 mA;
197.71419650082;0.040496826171875;1.59999999596039;9;5.6182861328125E-05;10 mA;
197.914196500315;0.04517822265625;1.79999999545544;10;5.62133789062499E-05;10 mA;
198.11419649981;0.0496826171875;1.99999999495049;11;5.5816650390625E-05;10 mA;
198.314196499305;0.0540771484375;2.19999999444553;12;5.633544921875E-05;10 mA;
198.5141964988;0.05828857421875;2.39999999394058;13;5.65490722656251E-05;10 mA;
198.714196498295;0.062347412109375;2.59999999343563;14;5.6121826171875E-05;10 mA;
198.91419649779;0.0662841796875;2.79999999293068;15;5.62438964843751E-05;10 mA;
199.114196497285;0.070159912109375;2.99999999242573;16;5.60913085937501E-05;10 mA;
199.31419649678;0.07391357421875;3.19999999192078;17;5.62133789062499E-05;10 mA;
199.514196496275;0.07757568359375;3.39999999141583;18;5.6304931640625E-05;10 mA;
199.71419649577;0.0811767578125;3.59999999091087;19;5.60913085937501E-05;10 mA;
199.914196495265;0.084686279296875;3.79999999040592;20;5.62438964843751E-05;10 mA;
200.11419649476;0.088134765625;3.99999998990097;21;5.63964843750001E-05;10 mA;
200.314196494255;0.091583251953125;4.19999998939602;22;5.62438964843751E-05;10 mA;
200.51419649375;0.09490966796875;4.39999998889107;23;5.6182861328125E-05;10 mA;
200.714196493245;0.09820556640625;4.59999998838612;24;5.60607910156249E-05;10 mA;
200.91419649274;0.101409912109375;4.79999998788116;25;5.59387207031251E-05;10 mA;
201.114196492235;0.1046142578125;4.99999998737621;26;5.62438964843751E-05;10 mA;
201.314196491731;0.107757568359375;5.19999998687126;27;5.5694580078125E-05;10 mA;
201.514196491226;0.11083984375;5.39999998636631;28;5.6182861328125E-05;10 mA;
201.714196490721;0.1138916015625;5.59999998586136;29;5.60913085937501E-05;10 mA;
201.914196490216;0.11688232421875;5.79999998535641;30;5.6121826171875E-05;10 mA;
202.114196489711;0.119842529296875;5.99999998485146;31;5.62744140625E-05;10 mA;
202.314196489206;0.122772216796875;6.1999999843465;32;5.65185546874999E-05;10 mA;
202.514196488701;0.125640869140625;6.39999998384155;33;5.60913085937501E-05;10 mA;
202.714196488196;0.12847900390625;6.5999999833366;34;5.57861328125001E-05;10 mA;
202.914196487691;0.13128662109375;6.79999998283165;35;5.645751953125E-05;10 mA;
203.114196487186;0.134063720703125;6.9999999823267;36;5.63964843750001E-05;10 mA;
203.314196486681;0.136871337890625;7.19999998182175;37;5.62744140625E-05;10 mA;
203.514196486176;0.13958740234375;7.3999999813168;38;5.6182861328125E-05;10 mA;
203.714196485671;0.142242431640625;7.59999998081184;39;5.645751953125E-05;10 mA;
203.914196485166;0.1448974609375;7.79999998030689;40;5.6304931640625E-05;10 mA;
204.114196484661;0.14752197265625;7.99999997980194;41;5.60913085937501E-05;10 mA;
204.314196484156;0.150146484375;8.19999997929699;42;5.6427001953125E-05;10 mA;
204.514196483651;0.1527099609375;8.39999997879204;43;5.6304931640625E-05;10 mA;
204.714196483146;0.155242919921875;8.59999997828709;44;5.6121826171875E-05;10 mA;
204.914196482641;0.157745361328125;8.79999997778214;45;5.62744140625E-05;10 mA;
205.114196482136;0.160247802734375;8.99999997727718;46;5.60913085937501E-05;10 mA;
205.314196481631;0.162750244140625;9.19999997677223;47;5.60607910156249E-05;10 mA;
205.514196481127;0.165252685546875;9.39999997626728;48;5.615234375E-05;10 mA;
205.714196480622;0.16766357421875;9.59999997576233;49;5.615234375E-05;10 mA;
205.914196480117;0.170074462890625;9.79999997525738;50;5.645751953125E-05;10 mA;
206.114196479612;0.17242431640625;9.99999997475243;51;5.633544921875E-05;10 mA;
206.314196479107;0.174835205078125;10.1999999742475;52;5.62133789062499E-05;10 mA;
206.514196478602;0.17724609375;10.3999999737425;53;5.645751953125E-05;10 mA;
206.714196478097;0.179534912109375;10.5999999732376;54;5.596923828125E-05;10 mA;
206.914196477592;0.181884765625;10.7999999727326;55;5.62133789062499E-05;10 mA;
207.114196477087;0.1842041015625;10.9999999722277;56;5.596923828125E-05;10 mA;
207.314196476582;0.186492919921875;11.1999999717227;57;5.6640625E-05;10 mA;
207.514196476077;0.18878173828125;11.3999999712178;58;5.633544921875E-05;10 mA;
207.714196475572;0.1910400390625;11.5999999707128;59;5.63659667968749E-05;10 mA;
207.914196475067;0.193267822265625;11.7999999702079;60;5.60913085937501E-05;10 mA;
208.114196474562;0.195465087890625;11.9999999697029;61;5.60302734375E-05;10 mA;
208.314196474057;0.1976318359375;12.199999969198;62;5.60913085937501E-05;10 mA;
208.514196473552;0.199798583984375;12.399999968693;63;5.63659667968749E-05;10 mA;
208.714196473047;0.20196533203125;12.5999999681881;64;5.633544921875E-05;10 mA;
208.914196472542;0.2041015625;12.7999999676831;65;5.62438964843751E-05;10 mA;
209.114196472037;0.20623779296875;12.9999999671782;66;5.615234375E-05;10 mA;
209.314196471532;0.208343505859375;13.1999999666732;67;5.6488037109375E-05;10 mA;
209.514196471028;0.210418701171875;13.3999999661683;68;5.60302734375E-05;10 mA;
209.714196470523;0.212493896484375;13.5999999656633;69;5.63659667968749E-05;10 mA;
209.914196470018;0.214569091796875;13.7999999651583;70;5.62744140625E-05;10 mA;
210.114196469513;0.216644287109375;13.9999999646534;71;5.596923828125E-05;10 mA;
210.314196469008;0.218719482421875;14.1999999641484;72;5.6182861328125E-05;10 mA;
210.514196468503;0.220733642578125;14.3999999636435;73;5.60302734375E-05;10 mA;
210.714196467998;0.222747802734375;14.5999999631385;74;5.6121826171875E-05;10 mA;
210.914196467493;0.224761962890625;14.7999999626336;75;5.60913085937501E-05;10 mA;
211.114196466988;0.22674560546875;14.9999999621286;76;5.63964843750001E-05;10 mA;
211.314196466483;0.22869873046875;15.1999999616237;77;5.65185546874999E-05;10 mA;
211.514196465978;0.230682373046875;15.3999999611187;78;5.62438964843751E-05;10 mA;
211.714196465473;0.232635498046875;15.5999999606138;79;5.6182861328125E-05;10 mA;
211.914196464968;0.23455810546875;15.7999999601088;80;5.6121826171875E-05;10 mA;
212.114196464463;0.236541748046875;15.9999999596039;81;5.60607910156249E-05;10 mA;
212.314196463958;0.23846435546875;16.1999999590989;82;5.6182861328125E-05;10 mA;
212.514196463453;0.240386962890625;16.399999958594;83;5.60913085937501E-05;10 mA;
212.714196462948;0.242340087890625;16.599999958089;84;5.633544921875E-05;10 mA;
212.914196462443;0.2442626953125;16.7999999575841;85;5.615234375E-05;10 mA;
213.114196461938;0.24615478515625;16.9999999570791;86;5.6121826171875E-05;10 mA;
213.314196461433;0.248046875;17.1999999565742;87;5.62438964843751E-05;10 mA;
213.514196460928;0.24993896484375;17.3999999560692;88;5.596923828125E-05;10 mA;
213.714196460424;0.251800537109375;17.5999999555643;89;5.6610107421875E-05;10 mA;
213.914196459919;0.253662109375;17.7999999550593;90;5.65490722656251E-05;10 mA;
214.114196459414;0.255523681640625;17.9999999545544;91;5.6121826171875E-05;10 mA;
214.314196458909;0.25738525390625;18.1999999540494;92;5.60913085937501E-05;10 mA;
214.514196458404;0.259185791015625;18.3999999535445;93;5.62133789062499E-05;10 mA;
214.714196457899;0.26104736328125;18.5999999530395;94;5.63659667968749E-05;10 mA;
214.914196457394;0.262847900390625;18.7999999525346;95;5.596923828125E-05;10 mA;
215.114196456889;0.264678955078125;18.9999999520296;96;5.62744140625E-05;10 mA;
215.314196456384;0.2664794921875;19.1999999515247;97;5.633544921875E-05;10 mA;
215.514196455879;0.26824951171875;19.3999999510197;98;5.596923828125E-05;10 mA;
215.714196455374;0.27001953125;19.5999999505148;99;5.65490722656251E-05;10 mA;
215.914196454869;0.27178955078125;19.7999999500098;100;5.62744140625E-05;10 mA;
216.114196454364;0.273529052734375;19.9999999495049;101;5.645751953125E-05;10 mA;
216.314196453859;0.275299072265625;20.1999999489999;102;5.62438964843751E-05;10 mA;
216.514196453354;0.277069091796875;20.399999948495;103;5.6640625E-05;10 mA;
216.714196452849;0.278778076171875;20.59999994799;104;5.65490722656251E-05;10 mA;
216.914196452344;0.280517578125;20.799999947485;105;5.6304931640625E-05;10 mA;
217.114196451839;0.2822265625;20.9999999469801;106;5.596923828125E-05;10 mA;
217.314196451334;0.283935546875;21.1999999464751;107;5.62133789062499E-05;10 mA;
217.514196450829;0.28564453125;21.3999999459702;108;5.60302734375E-05;10 mA;
217.714196450324;0.287384033203125;21.5999999454652;109;5.633544921875E-05;10 mA;
217.91419644982;0.2890625;21.7999999449603;110;5.60607910156249E-05;10 mA;
218.114196449315;0.290740966796875;21.9999999444553;111;5.62133789062499E-05;10 mA;
218.31419644881;0.292449951171875;22.1999999439504;112;5.63659667968749E-05;10 mA;
218.514196448305;0.29412841796875;22.3999999434454;113;5.6488037109375E-05;10 mA;
218.7141964478;0.29583740234375;22.5999999429405;114;5.6182861328125E-05;10 mA;
218.914196447295;0.29742431640625;22.7999999424355;115;5.62133789062499E-05;10 mA;
219.11419644679;0.299102783203125;22.9999999419306;116;5.62744140625E-05;10 mA;
219.314196446285;0.300750732421875;23.1999999414256;117;5.6488037109375E-05;10 mA;
219.51419644578;0.302398681640625;23.3999999409207;118;5.6182861328125E-05;10 mA;
219.714196445275;0.30401611328125;23.5999999404157;119;5.63659667968749E-05;10 mA;
219.91419644477;0.3056640625;23.7999999399108;120;5.6304931640625E-05;10 mA;
220.114196444265;0.3072509765625;23.9999999394058;121;5.63964843750001E-05;10 mA;
220.31419644376;0.308868408203125;24.1999999389009;122;5.63659667968749E-05;10 mA;
220.514196443255;0.310455322265625;24.3999999383959;123;5.6610107421875E-05;10 mA;
220.71419644275;0.31207275390625;24.599999937891;124;5.6427001953125E-05;10 mA;
220.914196442245;0.313629150390625;24.799999937386;125;5.6121826171875E-05;10 mA;
221.11419644174;0.315185546875;24.9999999368811;126;5.633544921875E-05;10 mA;
221.314196441235;0.3167724609375;25.1999999363761;127;5.60607910156249E-05;10 mA;
221.51419644073;0.318359375;25.3999999358712;128;5.615234375E-05;10 mA;
221.714196440225;0.3199462890625;25.5999999353662;129;5.59387207031251E-05;10 mA;
221.914196439721;0.32147216796875;25.7999999348613;130;5.63964843750001E-05;10 mA;
222.114196439216;0.323028564453125;25.9999999343563;131;5.63659667968749E-05;10 mA;
222.314196438711;0.3245849609375;26.1999999338514;132;5.63964843750001E-05;10 mA;
222.514196438206;0.326141357421875;26.3999999333464;133;5.6121826171875E-05;10 mA;
222.714196437701;0.32769775390625;26.5999999328415;134;5.63659667968749E-05;10 mA;
222.914196437196;0.3292236328125;26.7999999323365;135;5.62438964843751E-05;10 mA;
223.114196436691;0.330718994140625;26.9999999318316;136;5.65490722656251E-05;10 mA;
223.314196436186;0.332244873046875;27.1999999313266;137;5.633544921875E-05;10 mA;
223.514196435681;0.333740234375;27.3999999308217;138;5.596923828125E-05;10 mA;
223.714196435176;0.33526611328125;27.5999999303167;139;5.62744140625E-05;10 mA;
223.914196434671;0.336761474609375;27.7999999298117;140;5.6488037109375E-05;10 mA;
224.114196434166;0.338226318359375;27.9999999293068;141;5.62744140625E-05;10 mA;
224.314196433661;0.339752197265625;28.1999999288018;142;5.645751953125E-05;10 mA;
224.514196433156;0.341278076171875;28.3999999282969;143;5.6182861328125E-05;10 mA;
224.714196432651;0.342742919921875;28.5999999277919;144;5.6304931640625E-05;10 mA;
224.914196432146;0.34417724609375;28.799999927287;145;5.6304931640625E-05;10 mA;
225.114196431641;0.34564208984375;28.999999926782;146;5.6182861328125E-05;10 mA;
225.314196431136;0.347137451171875;29.1999999262771;147;5.6304931640625E-05;10 mA;
225.514196430631;0.34857177734375;29.3999999257721;148;5.60913085937501E-05;10 mA;
225.714196430126;0.35003662109375;29.5999999252672;149;5.615234375E-05;10 mA;
225.914196429621;0.35150146484375;29.7999999247622;150;5.62438964843751E-05;10 mA;
226.114196429117;0.35296630859375;29.9999999242573;151;5.63964843750001E-05;10 mA;
226.314196428612;0.354400634765625;30.1999999237523;152;5.60302734375E-05;10 mA;
226.514196428107;0.355865478515625;30.3999999232474;153;5.62744140625E-05;10 mA;
226.714196427602;0.3572998046875;30.5999999227424;154;5.60302734375E-05;10 mA;
226.914196427097;0.35870361328125;30.7999999222375;155;5.60607910156249E-05;10 mA;
227.114196426592;0.360107421875;30.9999999217325;156;5.63964843750001E-05;10 mA;
227.314196426087;0.361541748046875;31.1999999212276;157;5.645751953125E-05;10 mA;
227.514196425582;0.363006591796875;31.3999999207226;158;5.62133789062499E-05;10 mA;
227.714196425077;0.364410400390625;31.5999999202177;159;5.62744140625E-05;10 mA;
227.914196424572;0.36578369140625;31.7999999197127;160;5.645751953125E-05;10 mA;
228.114196424067;0.36724853515625;31.9999999192078;161;5.62744140625E-05;10 mA;
228.314196423562;0.368621826171875;32.1999999187028;162;5.65185546874999E-05;10 mA;
228.514196423057;0.3699951171875;32.3999999181979;163;5.63964843750001E-05;10 mA;
228.714196422552;0.37139892578125;32.5999999176929;164;5.62438964843751E-05;10 mA;
228.914196422047;0.372802734375;32.799999917188;165;5.6427001953125E-05;10 mA;
229.114196421542;0.3741455078125;32.999999916683;166;5.63964843750001E-05;10 mA;
229.314196421037;0.375518798828125;33.1999999161781;167;5.6182861328125E-05;10 mA;
229.514196420532;0.376922607421875;33.3999999156731;168;5.615234375E-05;10 mA;
229.714196420027;0.3782958984375;33.5999999151682;169;5.6121826171875E-05;10 mA;
229.914196419522;0.379669189453125;33.7999999146632;170;5.60913085937501E-05;10 mA;
230.114196419018;0.38104248046875;33.9999999141583;171;5.63964843750001E-05;10 mA;
230.314196418513;0.382354736328125;34.1999999136533;172;5.633544921875E-05;10 mA;
230.514196418008;0.3837890625;34.3999999131483;173;5.62744140625E-05;10 mA;
230.714196417503;0.385101318359375;34.5999999126434;174;5.60913085937501E-05;10 mA;
230.914196416998;0.386505126953125;34.7999999121384;175;5.62133789062499E-05;10 mA;
231.114196416493;0.38787841796875;34.9999999116335;176;5.6304931640625E-05;10 mA;
231.314196415988;0.38922119140625;35.1999999111285;177;5.65490722656251E-05;10 mA;
231.514196415483;0.390594482421875;35.3999999106236;178;5.60607910156249E-05;10 mA;
231.714196414978;0.39190673828125;35.5999999101186;179;5.6182861328125E-05;10 mA;
231.914196414473;0.39324951171875;35.7999999096137;180;5.6427001953125E-05;10 mA;
232.114196413968;0.39459228515625;35.9999999091087;181;5.62744140625E-05;10 mA;
232.314196413463;0.39593505859375;36.1999999086038;182;5.63659667968749E-05;10 mA;
232.514196412958;0.397308349609375;36.3999999080988;183;5.59387207031251E-05;10 mA;
232.714196412453;0.398681640625;36.5999999075939;184;5.62744140625E-05;10 mA;
232.914196411948;0.4000244140625;36.7999999070889;185;5.6304931640625E-05;10 mA;
233.114196411443;0.401397705078125;36.999999906584;186;5.6488037109375E-05;10 mA;
233.314196410938;0.4027099609375;37.199999906079;187;5.6182861328125E-05;10 mA;
233.514196410433;0.404083251953125;37.3999999055741;188;5.6304931640625E-05;10 mA;
233.714196409928;0.40545654296875;37.5999999050691;189;5.6304931640625E-05;10 mA;
233.914196409423;0.40679931640625;37.7999999045642;190;5.6488037109375E-05;10 mA;
234.114196408918;0.40814208984375;37.9999999040592;191;5.62133789062499E-05;10 mA;
234.314196408414;0.40948486328125;38.1999999035543;192;5.6427001953125E-05;10 mA;
234.514196407909;0.41082763671875;38.3999999030493;193;5.65185546874999E-05;10 mA;
234.714196407404;0.412200927734375;38.5999999025444;194;5.62133789062499E-05;10 mA;
234.914196406899;0.413543701171875;38.7999999020394;195;5.6304931640625E-05;10 mA;
235.114196406394;0.414947509765625;38.9999999015345;196;5.615234375E-05;10 mA;
235.314196405889;0.41632080078125;39.1999999010295;197;5.60302734375E-05;10 mA;
235.514196405384;0.417694091796875;39.3999999005246;198;5.6304931640625E-05;10 mA;
235.714196404879;0.4190673828125;39.5999999000196;199;5.6304931640625E-05;10 mA;
235.914196404374;0.420501708984375;39.7999998995147;200;5.63659667968749E-05;10 mA;
236.114196403869;0.421844482421875;39.9999998990097;201;5.66711425781249E-05;10 mA;
236.314196403364;0.4232177734375;40.1999998985048;202;5.62133789062499E-05;10 mA;
236.514196402859;0.424591064453125;40.3999998979998;203;5.6121826171875E-05;10 mA;
236.714196402354;0.425933837890625;40.5999998974949;204;5.62438964843751E-05;10 mA;
236.914196401849;0.427276611328125;40.7999998969899;205;5.62744140625E-05;10 mA;
237.114196401344;0.4287109375;40.999999896485;206;5.6640625E-05;10 mA;
237.314196400839;0.430084228515625;41.19999989598;207;5.645751953125E-05;10 mA;
237.514196400334;0.43145751953125;41.399999895475;208;5.60607910156249E-05;10 mA;
237.714196399829;0.432861328125;41.5999998949701;209;5.63964843750001E-05;10 mA;
237.914196399324;0.43426513671875;41.7999998944651;210;5.62744140625E-05;10 mA;
238.114196398819;0.4356689453125;41.9999998939602;211;5.6304931640625E-05;10 mA;
238.314196398314;0.437042236328125;42.1999998934552;212;5.633544921875E-05;10 mA;
238.51419639781;0.4384765625;42.3999998929503;213;5.6427001953125E-05;10 mA;
238.714196397305;0.439849853515625;42.5999998924453;214;5.6304931640625E-05;10 mA;
238.9141963968;0.441253662109375;42.7999998919404;215;5.6732177734375E-05;10 mA;
239.114196396295;0.44268798828125;42.9999998914354;216;5.6182861328125E-05;10 mA;
239.31419639579;0.444091796875;43.1999998909305;217;5.63964843750001E-05;10 mA;
239.514196395285;0.44549560546875;43.3999998904255;218;5.6121826171875E-05;10 mA;
239.71419639478;0.44696044921875;43.5999998899206;219;5.6427001953125E-05;10 mA;
239.914196394275;0.44830322265625;43.7999998894156;220;5.6121826171875E-05;10 mA;
240.11419639377;0.44976806640625;43.9999998889107;221;5.645751953125E-05;10 mA;
240.314196393265;0.451202392578125;44.1999998884057;222;5.645751953125E-05;10 mA;
240.51419639276;0.452606201171875;44.3999998879008;223;5.615234375E-05;10 mA;
240.714196392255;0.454071044921875;44.5999998873958;224;5.645751953125E-05;10 mA;
240.91419639175;0.455474853515625;44.7999998868909;225;5.60302734375E-05;10 mA;
241.114196391245;0.45697021484375;44.9999998863859;226;5.62744140625E-05;10 mA;
241.31419639074;0.4583740234375;45.199999885881;227;5.59082031249999E-05;10 mA;
241.514196390235;0.459869384765625;45.399999885376;228;5.6304931640625E-05;10 mA;
241.71419638973;0.461334228515625;45.5999998848711;229;5.633544921875E-05;10 mA;
241.914196389225;0.462799072265625;45.7999998843661;230;5.6304931640625E-05;10 mA;
242.11419638872;0.464263916015625;45.9999998838612;231;5.657958984375E-05;10 mA;
242.314196388215;0.465728759765625;46.1999998833562;232;5.65490722656251E-05;10 mA;
242.514196387711;0.46722412109375;46.3999998828513;233;5.6488037109375E-05;10 mA;
242.714196387206;0.468719482421875;46.5999998823463;234;5.65490722656251E-05;10 mA;
242.914196386701;0.47015380859375;46.7999998818414;235;5.645751953125E-05;10 mA;
243.114196386196;0.47161865234375;46.9999998813364;236;5.657958984375E-05;10 mA;
243.314196385691;0.473175048828125;47.1999998808315;237;5.63659667968749E-05;10 mA;
243.514196385186;0.474639892578125;47.3999998803265;238;5.66711425781249E-05;10 mA;
243.714196384681;0.476104736328125;47.5999998798216;239;5.66711425781249E-05;10 mA;
243.914196384176;0.477569580078125;47.7999998793166;240;5.6121826171875E-05;10 mA;
244.114196383671;0.47906494140625;47.9999998788116;241;5.6488037109375E-05;10 mA;
244.314196383166;0.4805908203125;48.1999998783067;242;5.633544921875E-05;10 mA;
244.514196382661;0.482086181640625;48.3999998778017;243;5.6427001953125E-05;10 mA;
244.714196382156;0.48358154296875;48.5999998772968;244;5.6488037109375E-05;10 mA;
244.914196381651;0.48504638671875;48.7999998767918;245;5.68542480468751E-05;10 mA;
245.114196381146;0.486572265625;48.9999998762869;246;5.6610107421875E-05;10 mA;
245.314196380641;0.488128662109375;49.1999998757819;247;5.62133789062499E-05;10 mA;
245.514196380136;0.489654541015625;49.399999875277;248;5.615234375E-05;10 mA;
245.714196379631;0.4912109375;49.599999874772;249;5.6427001953125E-05;10 mA;
245.914196379126;0.492767333984375;49.7999998742671;250;5.62133789062499E-05;10 mA;
246.114196378621;0.49432373046875;49.9999998737621;251;5.633544921875E-05;10 mA;
246.314196378116;0.495880126953125;50.1999998732572;252;5.657958984375E-05;10 mA;
246.514196377611;0.4974365234375;50.3999998727522;253;5.6488037109375E-05;10 mA;
246.714196377107;0.49896240234375;50.5999998722473;254;5.63659667968749E-05;10 mA;
246.914196376602;0.50048828125;50.7999998717423;255;5.645751953125E-05;10 mA;
247.114196376097;0.50201416015625;50.9999998712374;256;5.63659667968749E-05;10 mA;
247.314196375592;0.5035400390625;51.1999998707324;257;5.6793212890625E-05;10 mA;
247.514196375087;0.50506591796875;51.3999998702275;258;5.6304931640625E-05;10 mA;
247.714196374582;0.506591796875;51.5999998697225;259;5.657958984375E-05;10 mA;
247.914196374077;0.50811767578125;51.7999998692176;260;5.633544921875E-05;10 mA;
248.114196373572;0.50994873046875;51.9999998687126;261;5.657958984375E-05;10 mA;
248.314196373067;0.511474609375;52.1999998682077;262;5.6304931640625E-05;10 mA;
248.514196372562;0.51300048828125;52.3999998677027;263;5.63964843750001E-05;10 mA;
248.714196372057;0.5145263671875;52.5999998671978;264;5.62133789062499E-05;10 mA;
248.914196371552;0.516357421875;52.7999998666928;265;5.63659667968749E-05;10 mA;
249.114196371047;0.51788330078125;52.9999998661879;266;5.65490722656251E-05;10 mA;
249.314196370542;0.5194091796875;53.1999998656829;267;5.633544921875E-05;10 mA;
249.514196370037;0.52093505859375;53.399999865178;268;5.63659667968749E-05;10 mA;
249.714196369532;0.52276611328125;53.599999864673;269;5.65185546874999E-05;10 mA;
249.914196369027;0.5242919921875;53.7999998641681;270;5.6488037109375E-05;10 mA;
250.114196368522;0.52581787109375;53.9999998636631;271;5.633544921875E-05;10 mA;
250.314196368017;0.52764892578125;54.1999998631582;272;5.633544921875E-05;10 mA;
250.514196367512;0.5291748046875;54.3999998626532;273;5.6610107421875E-05;10 mA;
250.714196367008;0.53070068359375;54.5999998621483;274;5.6640625E-05;10 mA;
250.914196366503;0.5322265625;54.7999998616433;275;5.6610107421875E-05;10 mA;
251.114196365998;0.5340576171875;54.9999998611383;276;5.657958984375E-05;10 mA;
251.314196365493;0.53558349609375;55.1999998606334;277;5.62133789062499E-05;10 mA;
251.514196364988;0.53741455078125;55.3999998601284;278;5.6427001953125E-05;10 mA;
251.714196364483;0.5389404296875;55.5999998596235;279;5.67016601562501E-05;10 mA;
251.914196363978;0.54046630859375;55.7999998591185;280;5.67626953125E-05;10 mA;
252.114196363473;0.54229736328125;55.9999998586136;281;5.63659667968749E-05;10 mA;
252.314196362968;0.5438232421875;56.1999998581086;282;5.6304931640625E-05;10 mA;
252.514196362463;0.545654296875;56.3999998576037;283;5.633544921875E-05;10 mA;
252.714196361958;0.54718017578125;56.5999998570987;284;5.63964843750001E-05;10 mA;
252.914196361453;0.54901123046875;56.7999998565938;285;5.6640625E-05;10 mA;
253.114196360948;0.550537109375;56.9999998560888;286;5.6427001953125E-05;10 mA;
253.314196360443;0.55206298828125;57.1999998555839;287;5.65490722656251E-05;10 mA;
253.514196359938;0.55389404296875;57.3999998550789;288;5.615234375E-05;10 mA;
253.714196359433;0.555419921875;57.599999854574;289;5.6427001953125E-05;10 mA;
253.914196358928;0.5572509765625;57.799999854069;290;5.694580078125E-05;10 mA;
254.114196358423;0.55908203125;57.9999998535641;291;5.67626953125E-05;10 mA;
254.314196357918;0.56060791015625;58.1999998530591;292;5.6884765625E-05;10 mA;
254.514196357413;0.5621337890625;58.3999998525542;293;5.65490722656251E-05;10 mA;
254.714196356908;0.56396484375;58.5999998520492;294;5.63659667968749E-05;10 mA;
254.914196356404;0.56549072265625;58.7999998515443;295;5.6640625E-05;10 mA;
255.114196355899;0.56732177734375;58.9999998510393;296;5.6304931640625E-05;10 mA;
255.314196355394;0.56915283203125;59.1999998505344;297;5.63659667968749E-05;10 mA;
255.514196354889;0.5706787109375;59.3999998500294;298;5.6793212890625E-05;10 mA;
255.714196354384;0.572509765625;59.5999998495245;299;5.6610107421875E-05;10 mA;
255.914196353879;0.57403564453125;59.7999998490195;300;5.6610107421875E-05;10 mA;
256.114196353374;0.57586669921875;59.9999998485146;301;5.70068359375001E-05;10 mA;
256.314196352869;0.57769775390625;60.1999998480096;302;5.63659667968749E-05;10 mA;
256.514196352364;0.5792236328125;60.3999998475047;303;5.657958984375E-05;10 mA;
256.714196351859;0.5810546875;60.5999998469997;304;5.66711425781249E-05;10 mA;
256.914196351354;0.5828857421875;60.7999998464948;305;5.6640625E-05;10 mA;
257.114196350849;0.58441162109375;60.9999998459898;306;5.6304931640625E-05;10 mA;
257.314196350344;0.58624267578125;61.1999998454849;307;5.65185546874999E-05;10 mA;
257.514196349839;0.5877685546875;61.3999998449799;308;5.6610107421875E-05;10 mA;
257.714196349334;0.589599609375;61.599999844475;309;5.657958984375E-05;10 mA;
257.914196348829;0.5914306640625;61.79999984397;310;5.62744140625E-05;10 mA;
258.114196348324;0.59295654296875;61.999999843465;311;5.67016601562501E-05;10 mA;
258.314196347819;0.59478759765625;62.1999998429601;312;5.6427001953125E-05;10 mA;
258.514196347314;0.59661865234375;62.3999998424551;313;5.62744140625E-05;10 mA;
258.714196346809;0.59814453125;62.5999998419502;314;5.657958984375E-05;10 mA;
258.914196346304;0.5999755859375;62.7999998414452;315;5.6488037109375E-05;10 mA;
259.1141963458;0.601806640625;62.9999998409403;316;5.6304931640625E-05;10 mA;
259.314196345295;0.60333251953125;63.1999998404353;317;5.65185546874999E-05;10 mA;
259.51419634479;0.60516357421875;63.3999998399304;318;5.63659667968749E-05;10 mA;
259.714196344285;0.60699462890625;63.5999998394254;319;5.63964843750001E-05;10 mA;
259.91419634378;0.60882568359375;63.7999998389205;320;5.6488037109375E-05;10 mA;
260.114196343275;0.61065673828125;63.9999998384155;321;5.657958984375E-05;10 mA;
260.31419634277;0.6121826171875;64.1999998379106;322;5.65490722656251E-05;10 mA;
260.514196342265;0.614013671875;64.3999998374056;323;5.6488037109375E-05;10 mA;
260.71419634176;0.6158447265625;64.5999998369007;324;5.67626953125E-05;10 mA;
260.914196341255;0.61767578125;64.7999998363957;325;5.65490722656251E-05;10 mA;
261.11419634075;0.61920166015625;64.9999998358908;326;5.657958984375E-05;10 mA;
261.314196340245;0.62103271484375;65.1999998353858;327;5.6610107421875E-05;10 mA;
261.51419633974;0.62286376953125;65.3999998348809;328;5.67016601562501E-05;10 mA;
261.714196339235;0.62469482421875;65.5999998343759;329;5.657958984375E-05;10 mA;
261.91419633873;0.62652587890625;65.799999833871;330;5.63659667968749E-05;10 mA;
262.114196338225;0.6280517578125;65.999999833366;331;5.68542480468751E-05;10 mA;
262.31419633772;0.6298828125;66.1999998328611;332;5.6304931640625E-05;10 mA;
262.514196337215;0.6317138671875;66.3999998323561;333;5.65185546874999E-05;10 mA;
262.71419633671;0.633544921875;66.5999998318512;334;5.657958984375E-05;10 mA;
262.914196336205;0.6353759765625;66.7999998313462;335;5.633544921875E-05;10 mA;
263.114196335701;0.63720703125;66.9999998308413;336;5.60913085937501E-05;10 mA;
263.314196335196;0.63873291015625;67.1999998303363;337;5.63659667968749E-05;10 mA;
263.514196334691;0.64056396484375;67.3999998298314;338;5.657958984375E-05;10 mA;
263.714196334186;0.64239501953125;67.5999998293264;339;5.657958984375E-05;10 mA;
263.914196333681;0.6439208984375;67.7999998288215;340;5.65490722656251E-05;10 mA;
264.114196333176;0.645751953125;67.9999998283165;341;5.63964843750001E-05;10 mA;
264.314196332671;0.6475830078125;68.1999998278116;342;5.6427001953125E-05;10 mA;
264.514196332166;0.6494140625;68.3999998273066;343;5.6732177734375E-05;10 mA;
264.714196331661;0.6512451171875;68.5999998268016;344;5.60607910156249E-05;10 mA;
264.914196331156;0.653076171875;68.7999998262967;345;5.68237304687499E-05;10 mA;
265.114196330651;0.6549072265625;68.9999998257917;346;5.6793212890625E-05;10 mA;
265.314196330146;0.65673828125;69.1999998252868;347;5.60607910156249E-05;10 mA;
265.514196329641;0.65826416015625;69.3999998247818;348;5.657958984375E-05;10 mA;
265.714196329136;0.660400390625;69.5999998242769;349;5.6732177734375E-05;10 mA;
265.914196328631;0.6622314453125;69.7999998237719;350;5.67626953125E-05;10 mA;
266.114196328126;0.66375732421875;69.999999823267;351;5.633544921875E-05;10 mA;
266.314196327621;0.66558837890625;70.199999822762;352;5.6427001953125E-05;10 mA;
266.514196327116;0.66741943359375;70.3999998222571;353;5.66711425781249E-05;10 mA;
266.714196326611;0.66925048828125;70.5999998217521;354;5.645751953125E-05;10 mA;
266.914196326106;0.67108154296875;70.7999998212472;355;5.63659667968749E-05;10 mA;
267.114196325601;0.67291259765625;70.9999998207422;356;5.68542480468751E-05;10 mA;
267.314196325097;0.67474365234375;71.1999998202373;357;5.63964843750001E-05;10 mA;
267.514196324592;0.67657470703125;71.3999998197323;358;5.6488037109375E-05;10 mA;
267.714196324087;0.67840576171875;71.5999998192274;359;5.6732177734375E-05;10 mA;
267.914196323582;0.68023681640625;71.7999998187224;360;5.6427001953125E-05;10 mA;
268.114196323077;0.6817626953125;71.9999998182175;361;5.63659667968749E-05;10 mA;
268.314196322572;0.68359375;72.1999998177125;362;5.657958984375E-05;10 mA;
268.514196322067;0.6854248046875;72.3999998172076;363;5.6793212890625E-05;10 mA;
268.714196321562;0.687255859375;72.5999998167026;364;5.66711425781249E-05;10 mA;
268.914196321057;0.6890869140625;72.7999998161977;365;5.6732177734375E-05;10 mA;
269.114196320552;0.69091796875;72.9999998156927;366;5.6884765625E-05;10 mA;
269.314196320047;0.6927490234375;73.1999998151878;367;5.6732177734375E-05;10 mA;
269.514196319542;0.694580078125;73.3999998146828;368;5.6732177734375E-05;10 mA;
269.714196319037;0.6964111328125;73.5999998141779;369;5.63964843750001E-05;10 mA;
269.914196318532;0.6982421875;73.7999998136729;370;5.645751953125E-05;10 mA;
270.114196318027;0.7000732421875;73.999999813168;371;5.6488037109375E-05;10 mA;
270.314196317522;0.70159912109375;74.199999812663;372;5.67016601562501E-05;10 mA;
270.514196317017;0.7037353515625;74.3999998121581;373;5.63964843750001E-05;10 mA;
270.714196316512;0.70556640625;74.5999998116531;374;5.6427001953125E-05;10 mA;
270.914196316007;0.70709228515625;74.7999998111482;375;5.6427001953125E-05;10 mA;
271.114196315502;0.70892333984375;74.9999998106432;376;5.65490722656251E-05;10 mA;
271.314196314998;0.71075439453125;75.1999998101383;377;5.6182861328125E-05;10 mA;
271.514196314493;0.71258544921875;75.3999998096333;378;5.63964843750001E-05;10 mA;
271.714196313988;0.71441650390625;75.5999998091283;379;5.6488037109375E-05;10 mA;
271.914196313483;0.71624755859375;75.7999998086234;380;5.645751953125E-05;10 mA;
272.114196312978;0.71807861328125;75.9999998081184;381;5.645751953125E-05;10 mA;
272.314196312473;0.71990966796875;76.1999998076135;382;5.63659667968749E-05;10 mA;
272.514196311968;0.72174072265625;76.3999998071085;383;5.62133789062499E-05;10 mA;
272.714196311463;0.72357177734375;76.5999998066036;384;5.67626953125E-05;10 mA;
272.914196310958;0.72540283203125;76.7999998060986;385;5.6427001953125E-05;10 mA;
273.114196310453;0.72723388671875;76.9999998055937;386;5.6610107421875E-05;10 mA;
273.314196309948;0.728759765625;77.1999998050887;387;5.65490722656251E-05;10 mA;
273.514196309443;0.7305908203125;77.3999998045838;388;5.65490722656251E-05;10 mA;
273.714196308938;0.732421875;77.5999998040788;389;5.67016601562501E-05;10 mA;
273.914196308433;0.7342529296875;77.7999998035739;390;5.657958984375E-05;10 mA;
274.114196307928;0.736083984375;77.9999998030689;391;5.6610107421875E-05;10 mA;
274.314196307423;0.7379150390625;78.199999802564;392;5.69763183593749E-05;10 mA;
274.514196306918;0.73974609375;78.399999802059;393;5.65490722656251E-05;10 mA;
274.714196306413;0.7415771484375;78.5999998015541;394;5.63964843750001E-05;10 mA;
274.914196305908;0.743408203125;78.7999998010491;395;5.645751953125E-05;10 mA;
275.114196305403;0.7452392578125;78.9999998005442;396;5.645751953125E-05;10 mA;
275.314196304898;0.7470703125;79.1999998000392;397;5.633544921875E-05;10 mA;
275.514196304394;0.7489013671875;79.3999997995343;398;5.657958984375E-05;10 mA;
275.714196303889;0.75042724609375;79.5999997990293;399;5.65185546874999E-05;10 mA;
275.914196303384;0.75225830078125;79.7999997985244;400;5.6488037109375E-05;10 mA;
276.114196302879;0.75408935546875;79.9999997980194;401;5.67626953125E-05;10 mA;
276.314196302374;0.75592041015625;80.1999997975145;402;5.694580078125E-05;10 mA;
276.514196301869;0.75775146484375;80.3999997970095;403;5.645751953125E-05;10 mA;
276.714196301364;0.75958251953125;80.5999997965046;404;5.6304931640625E-05;10 mA;
276.914196300859;0.7611083984375;80.7999997959996;405;5.6610107421875E-05;10 mA;
277.114196300354;0.762939453125;80.9999997954947;406;5.6427001953125E-05;10 mA;
277.314196299849;0.7647705078125;81.1999997949897;407;5.6182861328125E-05;10 mA;
277.514196299344;0.7666015625;81.3999997944848;408;5.65490722656251E-05;10 mA;
277.714196298839;0.7684326171875;81.5999997939798;409;5.62744140625E-05;10 mA;
277.914196298334;0.76995849609375;81.7999997934749;410;5.645751953125E-05;10 mA;
278.114196297829;0.77178955078125;81.9999997929699;411;5.657958984375E-05;10 mA;
278.314196297324;0.77362060546875;82.199999792465;412;5.67626953125E-05;10 mA;
278.514196296819;0.77545166015625;82.39999979196;413;5.6884765625E-05;10 mA;
278.714196296314;0.7769775390625;82.599999791455;414;5.657958984375E-05;10 mA;
278.914196295809;0.77880859375;82.7999997909501;415;5.645751953125E-05;10 mA;
279.114196295304;0.7806396484375;82.9999997904451;416;5.6488037109375E-05;10 mA;
279.314196294799;0.78216552734375;83.1999997899402;417;5.645751953125E-05;10 mA;
279.514196294294;0.78369140625;83.3999997894352;418;5.6488037109375E-05;10 mA;
279.71419629379;0.7855224609375;83.5999997889303;419;5.63964843750001E-05;10 mA;
279.914196293285;0.78704833984375;83.7999997884253;420;5.63964843750001E-05;10 mA;
280.11419629278;0.78887939453125;83.9999997879204;421;5.6427001953125E-05;10 mA;
280.314196292275;0.7904052734375;84.1999997874154;422;5.657958984375E-05;10 mA;
280.51419629177;0.792236328125;84.3999997869105;423;5.6427001953125E-05;10 mA;
280.714196291265;0.79376220703125;84.5999997864055;424;5.62744140625E-05;10 mA;
280.91419629076;0.79559326171875;84.7999997859006;425;5.657958984375E-05;10 mA;
281.114196290255;0.797119140625;84.9999997853956;426;5.6640625E-05;10 mA;
281.31419628975;0.7989501953125;85.1999997848907;427;5.67016601562501E-05;10 mA;
281.514196289245;0.80047607421875;85.3999997843857;428;5.62438964843751E-05;10 mA;
281.71419628874;0.802001953125;85.5999997838808;429;5.67016601562501E-05;10 mA;
281.914196288235;0.8038330078125;85.7999997833758;430;5.6488037109375E-05;10 mA;
282.11419628773;0.80535888671875;85.9999997828709;431;5.68237304687499E-05;10 mA;
282.314196287225;0.806884765625;86.1999997823659;432;5.63659667968749E-05;10 mA;
282.51419628672;0.80841064453125;86.399999781861;433;5.6915283203125E-05;10 mA;
282.714196286215;0.81024169921875;86.599999781356;434;5.63964843750001E-05;10 mA;
282.91419628571;0.811767578125;86.7999997808511;435;5.67626953125E-05;10 mA;
283.114196285205;0.81329345703125;86.9999997803461;436;5.6610107421875E-05;10 mA;
283.3141962847;0.8148193359375;87.1999997798412;437;5.68542480468751E-05;10 mA;
283.514196284195;0.81634521484375;87.3999997793362;438;5.633544921875E-05;10 mA;
283.714196283691;0.81787109375;87.5999997788313;439;5.63964843750001E-05;10 mA;
283.914196283186;0.81939697265625;87.7999997783263;440;5.6732177734375E-05;10 mA;
284.114196282681;0.8209228515625;87.9999997778214;441;5.6640625E-05;10 mA;
284.314196282176;0.82244873046875;88.1999997773164;442;5.68237304687499E-05;10 mA;
284.514196281671;0.823974609375;88.3999997768115;443;5.63964843750001E-05;10 mA;
284.714196281166;0.82550048828125;88.5999997763065;444;5.67016601562501E-05;10 mA;
284.914196280661;0.8270263671875;88.7999997758016;445;5.645751953125E-05;10 mA;
285.114196280156;0.82855224609375;88.9999997752966;446;5.657958984375E-05;10 mA;
285.314196279651;0.830078125;89.1999997747916;447;5.633544921875E-05;10 mA;
285.514196279146;0.831298828125;89.3999997742867;448;5.65490722656251E-05;10 mA;
285.714196278641;0.83282470703125;89.5999997737817;449;5.6488037109375E-05;10 mA;
285.914196278136;0.83404541015625;89.7999997732768;450;5.68237304687499E-05;10 mA;
286.114196277631;0.8355712890625;89.9999997727718;451;5.645751953125E-05;10 mA;
286.314196277126;0.8367919921875;90.1999997722669;452;5.63659667968749E-05;10 mA;
286.514196276621;0.83831787109375;90.3999997717619;453;5.6640625E-05;10 mA;
286.714196276116;0.83953857421875;90.599999771257;454;5.657958984375E-05;10 mA;
286.914196275611;0.841064453125;90.799999770752;455;5.68542480468751E-05;10 mA;
287.114196275106;0.84228515625;90.9999997702471;456;5.6732177734375E-05;10 mA;
287.314196274601;0.843505859375;91.1999997697421;457;5.633544921875E-05;10 mA;
287.514196274096;0.8447265625;91.3999997692372;458;5.6610107421875E-05;10 mA;
287.714196273591;0.84625244140625;91.5999997687322;459;5.6793212890625E-05;10 mA;
287.914196273087;0.84747314453125;91.7999997682273;460;5.66711425781249E-05;10 mA;
288.114196272582;0.84869384765625;91.9999997677223;461;5.67016601562501E-05;10 mA;
288.314196272077;0.84991455078125;92.1999997672174;462;5.6732177734375E-05;10 mA;
288.514196271572;0.85113525390625;92.3999997667124;463;5.68542480468751E-05;10 mA;WE(1).Potential > 0,85 V
288.714196271067;0.85235595703125;92.5999997662075;464;5.657958984375E-05;10 mA;WE(1).Potential > 0,85 V
288.914196270562;0.85357666015625;92.7999997657025;465;5.63964843750001E-05;10 mA;WE(1).Potential > 0,85 V
289.114196270057;0.85479736328125;92.9999997651976;466;5.657958984375E-05;10 mA;WE(1).Potential > 0,85 V
