Time (s);WE(1).Potential (V);Corrected time (s);Index;WE(1).Current (A);Current range;Cutoffs
2.46021399378856;0.465606689453125;0;1;1.7669677734375E-05;10 mA;
2.66021399328361;0.468414306640625;0.199999999495049;2;1.6021728515625E-05;10 mA;
2.86021399277865;0.4708251953125;0.399999998990097;3;1.68762207031251E-05;10 mA;
3.0602139922737;0.472991943359375;0.599999998485146;4;1.373291015625E-05;10 mA;
3.26021399176875;0.475067138671875;0.799999997980194;5;1.1444091796875E-05;10 mA;
3.4602139912638;0.477020263671875;0.999999997475243;6;1.6021728515625E-05;10 mA;
3.66021399075885;0.478851318359375;1.19999999697029;7;1.4312744140625E-05;10 mA;
3.8602139902539;0.48065185546875;1.39999999646534;8;1.6754150390625E-05;10 mA;
4.06021398974895;0.482391357421875;1.59999999596039;9;1.2054443359375E-05;10 mA;
4.26021398924399;0.484039306640625;1.79999999545544;10;1.3702392578125E-05;10 mA;
4.46021398873904;0.485626220703125;1.99999999495049;11;1.7547607421875E-05;10 mA;
4.66021398823409;0.48724365234375;2.19999999444553;12;1.44042968749999E-05;10 mA;
4.86021398772914;0.488800048828125;2.39999999394058;13;1.45874023437501E-05;10 mA;
5.06021398722419;0.49029541015625;2.59999999343563;14;1.4678955078125E-05;10 mA;
5.26021398671924;0.491790771484375;2.79999999293068;15;1.66015625E-05;10 mA;
5.46021398621428;0.4932861328125;2.99999999242573;16;1.434326171875E-05;10 mA;
5.66021398570933;0.4947509765625;3.19999999192078;17;1.4312744140625E-05;10 mA;
5.86021398520438;0.496185302734375;3.39999999141583;18;1.46484375E-05;10 mA;
6.06021398469943;0.497589111328125;3.59999999091087;19;1.4373779296875E-05;10 mA;
6.26021398419448;0.498992919921875;3.79999999040592;20;1.47399902343751E-05;10 mA;
6.46021398368953;0.50018310546875;3.99999998990097;21;1.66015625E-05;10 mA;
6.66021398318458;0.501708984375;4.19999998939602;22;1.71813964843751E-05;10 mA;
6.86021398267962;0.5029296875;4.39999998889107;23;1.45874023437501E-05;10 mA;
7.06021398217467;0.504150390625;4.59999998838612;24;1.4312744140625E-05;10 mA;
7.26021398166972;0.50567626953125;4.79999998788116;25;1.4617919921875E-05;10 mA;
7.46021398116477;0.50689697265625;4.99999998737621;26;1.44348144531251E-05;10 mA;
7.66021398065982;0.50811767578125;5.19999998687126;27;1.59606933593751E-05;10 mA;
7.86021398015487;0.50933837890625;5.39999998636631;28;1.77917480468751E-05;10 mA;
8.06021397964992;0.5108642578125;5.59999998586136;29;1.48925781250001E-05;10 mA;
8.26021397914496;0.5120849609375;5.79999998535641;30;1.483154296875E-05;10 mA;
8.46021397864001;0.5133056640625;5.99999998485146;31;1.5533447265625E-05;10 mA;
8.66021397813506;0.5145263671875;6.1999999843465;32;1.2847900390625E-05;10 mA;
8.86021397763011;0.51544189453125;6.39999998384155;33;1.76391601562501E-05;10 mA;
9.06021397712516;0.51666259765625;6.5999999833366;34;1.5228271484375E-05;10 mA;
9.26021397662021;0.51788330078125;6.79999998283165;35;1.29089355468751E-05;10 mA;
9.46021397611526;0.51910400390625;6.9999999823267;36;1.7730712890625E-05;10 mA;
9.6602139756103;0.52032470703125;7.19999998182175;37;1.56555175781251E-05;10 mA;
9.86021397510535;0.521240234375;7.3999999813168;38;1.28173828125E-05;10 mA;
10.0602139746004;0.5224609375;7.59999998081184;39;1.47399902343751E-05;10 mA;
10.2602139740954;0.52337646484375;7.79999998030689;40;1.7547607421875E-05;10 mA;
10.4602139735905;0.52459716796875;7.99999997980194;41;1.7669677734375E-05;10 mA;
10.6602139730855;0.52581787109375;8.19999997929699;42;1.2939453125E-05;10 mA;
10.8602139725806;0.5267333984375;8.39999997879204;43;1.5106201171875E-05;10 mA;
11.0602139720756;0.5279541015625;8.59999997828709;44;1.50146484374999E-05;10 mA;
11.2602139715707;0.52886962890625;8.79999997778214;45;1.55029296875001E-05;10 mA;
11.4602139710657;0.53009033203125;8.99999997727718;46;1.3092041015625E-05;10 mA;
11.6602139705608;0.531005859375;9.19999997677223;47;1.38244628906251E-05;10 mA;
11.8602139700558;0.5322265625;9.39999997626728;48;1.3427734375E-05;10 mA;
12.0602139695509;0.53314208984375;9.59999997576233;49;1.69677734375E-05;10 mA;
12.2602139690459;0.53436279296875;9.79999997525738;50;1.446533203125E-05;10 mA;
12.460213968541;0.5352783203125;9.99999997475243;51;1.6632080078125E-05;10 mA;
12.660213968036;0.53619384765625;10.1999999742475;52;1.55029296875001E-05;10 mA;
12.8602139675311;0.53741455078125;10.3999999737425;53;1.76391601562501E-05;10 mA;
13.0602139670261;0.538330078125;10.5999999732376;54;1.4923095703125E-05;10 mA;
13.2602139665212;0.53955078125;10.7999999727326;55;1.52587890625E-05;10 mA;
13.4602139660162;0.54046630859375;10.9999999722277;56;1.59301757812499E-05;10 mA;
13.6602139655113;0.5413818359375;11.1999999717227;57;1.7059326171875E-05;10 mA;
13.8602139650063;0.5426025390625;11.3999999712178;58;1.5899658203125E-05;10 mA;
14.0602139645014;0.54351806640625;11.5999999707128;59;1.57470703125E-05;10 mA;
14.2602139639964;0.54443359375;11.7999999702079;60;1.64794921875E-05;10 mA;
14.4602139634915;0.54534912109375;11.9999999697029;61;1.678466796875E-05;10 mA;
14.6602139629865;0.54656982421875;12.199999969198;62;1.568603515625E-05;10 mA;
14.8602139624816;0.5474853515625;12.399999968693;63;1.4678955078125E-05;10 mA;
15.0602139619766;0.54840087890625;12.5999999681881;64;1.44042968749999E-05;10 mA;
15.2602139614717;0.54931640625;12.7999999676831;65;1.41296386718751E-05;10 mA;
15.4602139609667;0.55023193359375;12.9999999671782;66;1.5869140625E-05;10 mA;
15.6602139604618;0.5511474609375;13.1999999666732;67;1.73339843750001E-05;10 mA;
15.8602139599568;0.5523681640625;13.3999999661683;68;1.4984130859375E-05;10 mA;
16.0602139594519;0.55328369140625;13.5999999656633;69;1.76391601562501E-05;10 mA;
16.2602139589469;0.55419921875;13.7999999651583;70;1.31835937499999E-05;10 mA;
16.460213958442;0.55511474609375;13.9999999646534;71;1.74560546874999E-05;10 mA;
16.660213957937;0.5560302734375;14.1999999641484;72;1.66015625E-05;10 mA;
16.8602139574321;0.55694580078125;14.3999999636435;73;1.71813964843751E-05;10 mA;
17.0602139569271;0.557861328125;14.5999999631385;74;1.45568847656249E-05;10 mA;
17.2602139564221;0.55877685546875;14.7999999626336;75;1.50146484374999E-05;10 mA;
17.4602139559172;0.5596923828125;14.9999999621286;76;1.54724121093749E-05;10 mA;
17.6602139554122;0.5609130859375;15.1999999616237;77;1.50146484374999E-05;10 mA;
17.8602139549073;0.56182861328125;15.3999999611187;78;1.800537109375E-05;10 mA;
18.0602139544023;0.562744140625;15.5999999606138;79;1.4678955078125E-05;10 mA;
18.2602139538974;0.56365966796875;15.7999999601088;80;1.69677734375E-05;10 mA;
18.4602139533924;0.5645751953125;15.9999999596039;81;1.727294921875E-05;10 mA;
18.6602139528875;0.56549072265625;16.1999999590989;82;1.66931152343749E-05;10 mA;
18.8602139523825;0.56640625;16.399999958594;83;1.434326171875E-05;10 mA;
19.0602139518776;0.56732177734375;16.599999958089;84;1.5411376953125E-05;10 mA;
19.2602139513726;0.5682373046875;16.7999999575841;85;1.38244628906251E-05;10 mA;
19.4602139508677;0.56915283203125;16.9999999570791;86;1.3275146484375E-05;10 mA;
19.6602139503627;0.570068359375;17.1999999565742;87;1.6632080078125E-05;10 mA;
19.8602139498578;0.5706787109375;17.3999999560692;88;1.5716552734375E-05;10 mA;
20.0602139493528;0.57159423828125;17.5999999555643;89;1.62353515624999E-05;10 mA;
20.2602139488479;0.572509765625;17.7999999550593;90;1.71508789062499E-05;10 mA;
20.4602139483429;0.57342529296875;17.9999999545544;91;1.751708984375E-05;10 mA;
20.660213947838;0.5743408203125;18.1999999540494;92;1.4801025390625E-05;10 mA;
20.860213947333;0.57525634765625;18.3999999535445;93;1.5411376953125E-05;10 mA;
21.0602139468281;0.576171875;18.5999999530395;94;1.385498046875E-05;10 mA;
21.2602139463231;0.57708740234375;18.7999999525346;95;1.36413574218749E-05;10 mA;
21.4602139458182;0.5780029296875;18.9999999520296;96;1.61132812500001E-05;10 mA;
21.6602139453132;0.57891845703125;19.1999999515247;97;1.56249999999999E-05;10 mA;
21.8602139448083;0.579833984375;19.3999999510197;98;1.33361816406249E-05;10 mA;
22.0602139443033;0.58074951171875;19.5999999505148;99;1.5838623046875E-05;10 mA;
22.2602139437984;0.5816650390625;19.7999999500098;100;1.3885498046875E-05;10 mA;
22.4602139432934;0.582275390625;19.9999999495049;101;1.47399902343751E-05;10 mA;
22.6602139427885;0.58319091796875;20.1999999489999;102;1.666259765625E-05;10 mA;
22.8602139422835;0.5841064453125;20.399999948495;103;1.41296386718751E-05;10 mA;
23.0602139417786;0.58502197265625;20.59999994799;104;1.53503417968751E-05;10 mA;
23.2602139412736;0.5859375;20.799999947485;105;1.67236328125001E-05;10 mA;
23.4602139407687;0.58685302734375;20.9999999469801;106;1.507568359375E-05;10 mA;
23.6602139402637;0.5877685546875;21.1999999464751;107;1.46484375E-05;10 mA;
23.8602139397588;0.58837890625;21.3999999459702;108;1.7242431640625E-05;10 mA;
24.0602139392538;0.58929443359375;21.5999999454652;109;1.6937255859375E-05;10 mA;
24.2602139387488;0.5902099609375;21.7999999449603;110;1.73339843750001E-05;10 mA;
24.4602139382439;0.59112548828125;21.9999999444553;111;1.385498046875E-05;10 mA;
24.6602139377389;0.592041015625;22.1999999439504;112;1.6357421875E-05;10 mA;
24.860213937234;0.5926513671875;22.3999999434454;113;1.6937255859375E-05;10 mA;
25.060213936729;0.59356689453125;22.5999999429405;114;1.52587890625E-05;10 mA;
25.2602139362241;0.594482421875;22.7999999424355;115;1.69677734375E-05;10 mA;
25.4602139357191;0.59539794921875;22.9999999419306;116;1.56249999999999E-05;10 mA;
25.6602139352142;0.5963134765625;23.1999999414256;117;1.68762207031251E-05;10 mA;
25.8602139347092;0.596923828125;23.3999999409207;118;1.57470703125E-05;10 mA;
26.0602139342043;0.59783935546875;23.5999999404157;119;1.690673828125E-05;10 mA;
26.2602139336993;0.5987548828125;23.7999999399108;120;1.5869140625E-05;10 mA;
26.4602139331944;0.59967041015625;23.9999999394058;121;1.36718750000001E-05;10 mA;
26.6602139326894;0.60028076171875;24.1999999389009;122;1.66015625E-05;10 mA;
26.8602139321845;0.6011962890625;24.3999999383959;123;1.6632080078125E-05;10 mA;
27.0602139316795;0.60211181640625;24.599999937891;124;1.416015625E-05;10 mA;
27.2602139311746;0.60272216796875;24.799999937386;125;1.73339843750001E-05;10 mA;
27.4602139306696;0.6036376953125;24.9999999368811;126;1.4801025390625E-05;10 mA;
27.6602139301647;0.60455322265625;25.1999999363761;127;1.52587890625E-05;10 mA;
27.8602139296597;0.60516357421875;25.3999999358712;128;1.71508789062499E-05;10 mA;
28.0602139291548;0.6060791015625;25.5999999353662;129;1.5533447265625E-05;10 mA;
28.2602139286498;0.60699462890625;25.7999999348613;130;1.59606933593751E-05;10 mA;
28.4602139281449;0.60760498046875;25.9999999343563;131;1.678466796875E-05;10 mA;
28.6602139276399;0.6085205078125;26.1999999338514;132;1.7242431640625E-05;10 mA;
28.860213927135;0.60943603515625;26.3999999333464;133;1.73339843750001E-05;10 mA;
29.06021392663;0.6103515625;26.5999999328415;134;1.7120361328125E-05;10 mA;
29.2602139261251;0.6109619140625;26.7999999323365;135;1.58081054687501E-05;10 mA;
29.4602139256201;0.61187744140625;26.9999999318316;136;1.54724121093749E-05;10 mA;
29.6602139251152;0.61248779296875;27.1999999313266;137;1.5289306640625E-05;10 mA;
29.8602139246102;0.6134033203125;27.3999999308217;138;1.5106201171875E-05;10 mA;
30.0602139241053;0.61431884765625;27.5999999303167;139;1.47094726562499E-05;10 mA;
30.2602139236003;0.61492919921875;27.7999999298117;140;1.3763427734375E-05;10 mA;
30.4602139230954;0.6158447265625;27.9999999293068;141;1.42517089843749E-05;10 mA;
30.6602139225904;0.616455078125;28.1999999288018;142;1.4068603515625E-05;10 mA;
30.8602139220854;0.61737060546875;28.3999999282969;143;1.45568847656249E-05;10 mA;
31.0602139215805;0.61798095703125;28.5999999277919;144;1.47705078125E-05;10 mA;
31.2602139210755;0.618896484375;28.799999927287;145;1.5289306640625E-05;10 mA;
31.4602139205706;0.6195068359375;28.999999926782;146;1.71813964843751E-05;10 mA;
31.6602139200656;0.62042236328125;29.1999999262771;147;1.5838623046875E-05;10 mA;
31.8602139195607;0.621337890625;29.3999999257721;148;1.690673828125E-05;10 mA;
32.0602139190557;0.6219482421875;29.5999999252672;149;1.6815185546875E-05;10 mA;
32.2602139185508;0.62286376953125;29.7999999247622;150;1.56249999999999E-05;10 mA;
32.4602139180458;0.62347412109375;29.9999999242573;151;1.7547607421875E-05;10 mA;
32.6602139175409;0.6243896484375;30.1999999237523;152;1.41296386718751E-05;10 mA;
32.8602139170359;0.62530517578125;30.3999999232474;153;1.37939453124999E-05;10 mA;
33.060213916531;0.62591552734375;30.5999999227424;154;1.71508789062499E-05;10 mA;
33.260213916026;0.62652587890625;30.7999999222375;155;1.3916015625E-05;10 mA;
33.4602139155211;0.62744140625;30.9999999217325;156;1.51672363281249E-05;10 mA;
33.6602139150161;0.6280517578125;31.1999999212276;157;1.6448974609375E-05;10 mA;
33.8602139145112;0.62896728515625;31.3999999207226;158;1.66931152343749E-05;10 mA;
34.0602139140062;0.6298828125;31.5999999202177;159;1.52587890625E-05;10 mA;
34.2602139135013;0.6304931640625;31.7999999197127;160;1.62353515624999E-05;10 mA;
34.4602139129963;0.631103515625;31.9999999192078;161;1.55029296875001E-05;10 mA;
34.6602139124914;0.63201904296875;32.1999999187028;162;1.73034667968749E-05;10 mA;
34.8602139119864;0.63262939453125;32.3999999181979;163;1.48620605468749E-05;10 mA;
35.0602139114815;0.633544921875;32.5999999176929;164;1.66931152343749E-05;10 mA;
35.2602139109765;0.6341552734375;32.799999917188;165;1.727294921875E-05;10 mA;
35.4602139104716;0.63507080078125;32.999999916683;166;1.5869140625E-05;10 mA;
35.6602139099666;0.63568115234375;33.1999999161781;167;1.727294921875E-05;10 mA;
35.8602139094617;0.6365966796875;33.3999999156731;168;1.54724121093749E-05;10 mA;
36.0602139089567;0.63720703125;33.5999999151682;169;1.495361328125E-05;10 mA;
36.2602139084518;0.6378173828125;33.7999999146632;170;1.64794921875E-05;10 mA;
36.4602139079468;0.63873291015625;33.9999999141583;171;1.60827636718749E-05;10 mA;
36.6602139074419;0.63934326171875;34.1999999136533;172;1.507568359375E-05;10 mA;
36.8602139069369;0.6402587890625;34.3999999131483;173;1.35192871093751E-05;10 mA;
37.060213906432;0.640869140625;34.5999999126434;174;1.6632080078125E-05;10 mA;
37.260213905927;0.6414794921875;34.7999999121384;175;1.33056640625E-05;10 mA;
37.4602139054221;0.64239501953125;34.9999999116335;176;1.53198242187499E-05;10 mA;
37.6602139049171;0.64300537109375;35.1999999111285;177;1.3275146484375E-05;10 mA;
37.8602139044121;0.64361572265625;35.3999999106236;178;1.6357421875E-05;10 mA;
38.0602139039072;0.64453125;35.5999999101186;179;1.33361816406249E-05;10 mA;
38.2602139034022;0.6451416015625;35.7999999096137;180;1.36413574218749E-05;10 mA;
38.4602139028973;0.645751953125;35.9999999091087;181;1.33666992187501E-05;10 mA;
38.6602139023923;0.64666748046875;36.1999999086038;182;1.3916015625E-05;10 mA;
38.8602139018874;0.64727783203125;36.3999999080988;183;1.5380859375E-05;10 mA;
39.0602139013824;0.64788818359375;36.5999999075939;184;1.47399902343751E-05;10 mA;
39.2602139008775;0.6488037109375;36.7999999070889;185;1.678466796875E-05;10 mA;
39.4602139003725;0.6494140625;36.999999906584;186;1.7120361328125E-05;10 mA;
39.6602138998676;0.6500244140625;37.199999906079;187;1.3275146484375E-05;10 mA;
39.8602138993626;0.650634765625;37.3999999055741;188;1.4007568359375E-05;10 mA;
40.0602138988577;0.65155029296875;37.5999999050691;189;1.77001953125E-05;10 mA;
40.2602138983527;0.65216064453125;37.7999999045642;190;1.54724121093749E-05;10 mA;
40.4602138978478;0.65277099609375;37.9999999040592;191;1.68762207031251E-05;10 mA;
40.6602138973428;0.6536865234375;38.1999999035543;192;1.52587890625E-05;10 mA;
40.8602138968379;0.654296875;38.3999999030493;193;1.800537109375E-05;10 mA;
41.0602138963329;0.6549072265625;38.5999999025444;194;1.61132812500001E-05;10 mA;
41.260213895828;0.65582275390625;38.7999999020394;195;1.52587890625E-05;10 mA;
41.460213895323;0.65643310546875;38.9999999015345;196;1.57775878906249E-05;10 mA;
41.6602138948181;0.65704345703125;39.1999999010295;197;1.568603515625E-05;10 mA;
41.8602138943131;0.657958984375;39.3999999005246;198;1.55029296875001E-05;10 mA;
42.0602138938082;0.6585693359375;39.5999999000196;199;1.5533447265625E-05;10 mA;
42.2602138933032;0.6591796875;39.7999998995147;200;1.4495849609375E-05;10 mA;
42.4602138927983;0.6597900390625;39.9999998990097;201;1.59301757812499E-05;10 mA;
42.6602138922933;0.66070556640625;40.1999998985048;202;1.66015625E-05;10 mA;
42.8602138917884;0.66131591796875;40.3999998979998;203;1.6326904296875E-05;10 mA;
43.0602138912834;0.66192626953125;40.5999998974949;204;1.51672363281249E-05;10 mA;
43.2602138907785;0.66253662109375;40.7999998969899;205;1.65405273437499E-05;10 mA;
43.4602138902735;0.66314697265625;40.999999896485;206;1.57470703125E-05;10 mA;
43.6602138897686;0.6640625;41.19999989598;207;1.385498046875E-05;10 mA;
43.8602138892636;0.6646728515625;41.399999895475;208;1.65405273437499E-05;10 mA;
44.0602138887587;0.665283203125;41.5999998949701;209;1.6754150390625E-05;10 mA;
44.2602138882537;0.66619873046875;41.7999998944651;210;1.5289306640625E-05;10 mA;
44.4602138877488;0.66680908203125;41.9999998939602;211;1.53503417968751E-05;10 mA;
44.6602138872438;0.66741943359375;42.1999998934552;212;1.6815185546875E-05;10 mA;
44.8602138867388;0.66802978515625;42.3999998929503;213;1.76086425781249E-05;10 mA;
45.0602138862339;0.66864013671875;42.5999998924453;214;1.5411376953125E-05;10 mA;
45.2602138857289;0.6695556640625;42.7999998919404;215;1.300048828125E-05;10 mA;
45.460213885224;0.670166015625;42.9999998914354;216;1.31835937499999E-05;10 mA;
45.660213884719;0.6707763671875;43.1999998909305;217;1.6143798828125E-05;10 mA;
45.8602138842141;0.67138671875;43.3999998904255;218;1.39770507812501E-05;10 mA;
46.0602138837091;0.6719970703125;43.5999998899206;219;1.5411376953125E-05;10 mA;
46.2602138832042;0.67291259765625;43.7999998894156;220;1.63879394531249E-05;10 mA;
46.4602138826992;0.67352294921875;43.9999998889107;221;1.4373779296875E-05;10 mA;
46.6602138821943;0.67413330078125;44.1999998884057;222;1.605224609375E-05;10 mA;
46.8602138816893;0.67474365234375;44.3999998879008;223;1.34887695312499E-05;10 mA;
47.0602138811844;0.67535400390625;44.5999998873958;224;1.36413574218749E-05;10 mA;
47.2602138806794;0.67596435546875;44.7999998868909;225;1.7059326171875E-05;10 mA;
47.4602138801745;0.67657470703125;44.9999998863859;226;1.385498046875E-05;10 mA;
47.6602138796695;0.677490234375;45.199999885881;227;1.71813964843751E-05;10 mA;
47.8602138791646;0.6781005859375;45.399999885376;228;1.6357421875E-05;10 mA;
48.0602138786596;0.6787109375;45.5999998848711;229;1.727294921875E-05;10 mA;
48.2602138781547;0.6793212890625;45.7999998843661;230;1.6021728515625E-05;10 mA;
48.4602138776497;0.679931640625;45.9999998838612;231;1.629638671875E-05;10 mA;
48.6602138771448;0.6805419921875;46.1999998833562;232;1.68762207031251E-05;10 mA;
48.8602138766398;0.68115234375;46.3999998828513;233;1.5411376953125E-05;10 mA;
49.0602138761349;0.6817626953125;46.5999998823463;234;1.4801025390625E-05;10 mA;
49.2602138756299;0.68267822265625;46.7999998818414;235;1.708984375E-05;10 mA;
49.460213875125;0.68328857421875;46.9999998813364;236;1.495361328125E-05;10 mA;
49.66021387462;0.68389892578125;47.1999998808315;237;1.30310058593749E-05;10 mA;
49.8602138741151;0.68450927734375;47.3999998803265;238;1.40991210937499E-05;10 mA;
50.0602138736101;0.68511962890625;47.5999998798216;239;1.6754150390625E-05;10 mA;
50.2602138731052;0.68572998046875;47.7999998793166;240;1.57470703125E-05;10 mA;
50.4602138726002;0.68634033203125;47.9999998788116;241;1.44348144531251E-05;10 mA;
50.6602138720953;0.68695068359375;48.1999998783067;242;1.324462890625E-05;10 mA;
50.8602138715903;0.68756103515625;48.3999998778017;243;1.64794921875E-05;10 mA;
51.0602138710854;0.68817138671875;48.5999998772968;244;1.45568847656249E-05;10 mA;
51.2602138705804;0.68878173828125;48.7999998767918;245;1.45568847656249E-05;10 mA;
51.4602138700754;0.68939208984375;48.9999998762869;246;1.47094726562499E-05;10 mA;
51.6602138695705;0.69000244140625;49.1999998757819;247;1.45568847656249E-05;10 mA;
51.8602138690655;0.69061279296875;49.399999875277;248;1.65405273437499E-05;10 mA;
52.0602138685606;0.69122314453125;49.599999874772;249;1.48925781250001E-05;10 mA;
52.2602138680556;0.69183349609375;49.7999998742671;250;1.6204833984375E-05;10 mA;
52.4602138675507;0.69244384765625;49.9999998737621;251;1.30310058593749E-05;10 mA;
52.6602138670457;0.69305419921875;50.1999998732572;252;1.6815185546875E-05;10 mA;
52.8602138665408;0.69366455078125;50.3999998727522;253;1.5106201171875E-05;10 mA;
53.0602138660358;0.69427490234375;50.5999998722473;254;1.708984375E-05;10 mA;
53.2602138655309;0.69488525390625;50.7999998717423;255;1.4007568359375E-05;10 mA;
53.4602138650259;0.69549560546875;50.9999998712374;256;1.67236328125001E-05;10 mA;
53.660213864521;0.69610595703125;51.1999998707324;257;1.4801025390625E-05;10 mA;
53.860213864016;0.69671630859375;51.3999998702275;258;1.46484375E-05;10 mA;
54.0602138635111;0.69732666015625;51.5999998697225;259;1.40991210937499E-05;10 mA;
54.2602138630061;0.69793701171875;51.7999998692176;260;1.7059326171875E-05;10 mA;
54.4602138625012;0.69854736328125;51.9999998687126;261;1.617431640625E-05;10 mA;
54.6602138619962;0.69915771484375;52.1999998682077;262;1.35498046875E-05;10 mA;
54.8602138614913;0.69976806640625;52.3999998677027;263;1.6143798828125E-05;10 mA;
55.0602138609863;0.7000732421875;52.5999998671978;264;1.35498046875E-05;10 mA;
55.2602138604814;0.70098876953125;52.7999998666928;265;1.4923095703125E-05;10 mA;
55.4602138599764;0.70159912109375;52.9999998661879;266;1.3275146484375E-05;10 mA;
55.6602138594715;0.70220947265625;53.1999998656829;267;1.4678955078125E-05;10 mA;
55.8602138589665;0.70281982421875;53.399999865178;268;1.507568359375E-05;10 mA;
56.0602138584616;0.70343017578125;53.599999864673;269;1.48925781250001E-05;10 mA;
56.2602138579566;0.7037353515625;53.7999998641681;270;1.7242431640625E-05;10 mA;
56.4602138574517;0.704345703125;53.9999998636631;271;1.5594482421875E-05;10 mA;
56.6602138569467;0.7049560546875;54.1999998631582;272;1.4617919921875E-05;10 mA;
56.8602138564418;0.70556640625;54.3999998626532;273;1.7242431640625E-05;10 mA;
57.0602138559368;0.7061767578125;54.5999998621483;274;1.7425537109375E-05;10 mA;
57.2602138554319;0.706787109375;54.7999998616433;275;1.513671875E-05;10 mA;
57.4602138549269;0.7073974609375;54.9999998611383;276;1.72119140625E-05;10 mA;
57.660213854422;0.7080078125;55.1999998606334;277;1.678466796875E-05;10 mA;
57.860213853917;0.7086181640625;55.3999998601284;278;1.6632080078125E-05;10 mA;
58.0602138534121;0.709228515625;55.5999998596235;279;1.62353515624999E-05;10 mA;
58.2602138529071;0.7098388671875;55.7999998591185;280;1.5899658203125E-05;10 mA;
58.4602138524021;0.71044921875;55.9999998586136;281;1.6326904296875E-05;10 mA;
58.6602138518972;0.7110595703125;56.1999998581086;282;1.61132812500001E-05;10 mA;
58.8602138513922;0.71136474609375;56.3999998576037;283;1.51672363281249E-05;10 mA;
59.0602138508873;0.71197509765625;56.5999998570987;284;1.56555175781251E-05;10 mA;
59.2602138503823;0.71258544921875;56.7999998565938;285;1.385498046875E-05;10 mA;
59.4602138498774;0.71319580078125;56.9999998560888;286;1.3702392578125E-05;10 mA;
59.6602138493724;0.71380615234375;57.1999998555839;287;1.3275146484375E-05;10 mA;
59.8602138488675;0.714111328125;57.3999998550789;288;1.57470703125E-05;10 mA;
60.0602138483625;0.7147216796875;57.599999854574;289;1.50146484374999E-05;10 mA;
60.2602138478576;0.71533203125;57.799999854069;290;1.2969970703125E-05;10 mA;
60.4602138473526;0.7159423828125;57.9999998535641;291;1.29089355468751E-05;10 mA;
60.6602138468477;0.71624755859375;58.1999998530591;292;1.4495849609375E-05;10 mA;
60.8602138463427;0.71685791015625;58.3999998525542;293;1.59606933593751E-05;10 mA;
61.0602138458378;0.71746826171875;58.5999998520492;294;1.50451660156251E-05;10 mA;
61.2602138453328;0.71807861328125;58.7999998515443;295;1.77001953125E-05;10 mA;
61.4602138448279;0.7183837890625;58.9999998510393;296;1.64794921875E-05;10 mA;
61.6602138443229;0.718994140625;59.1999998505344;297;1.27563476562501E-05;10 mA;
61.860213843818;0.71929931640625;59.3999998500294;298;1.74560546874999E-05;10 mA;
62.060213843313;0.71990966796875;59.5999998495245;299;1.34887695312499E-05;10 mA;
62.2602138428081;0.72052001953125;59.7999998490195;300;1.28173828125E-05;10 mA;
62.4602138423031;0.72113037109375;59.9999998485146;301;1.2969970703125E-05;10 mA;
62.6602138417982;0.721435546875;60.1999998480096;302;1.385498046875E-05;10 mA;
62.8602138412932;0.7220458984375;60.3999998475047;303;1.59912109375E-05;10 mA;
63.0602138407883;0.72265625;60.5999998469997;304;1.76086425781249E-05;10 mA;
63.2602138402833;0.72296142578125;60.7999998464948;305;1.416015625E-05;10 mA;
63.4602138397784;0.72357177734375;60.9999998459898;306;1.4007568359375E-05;10 mA;
63.6602138392734;0.72418212890625;61.1999998454849;307;1.56249999999999E-05;10 mA;
63.8602138387685;0.7244873046875;61.3999998449799;308;1.56249999999999E-05;10 mA;
64.0602138382635;0.72509765625;61.599999844475;309;1.48925781250001E-05;10 mA;
64.2602138377586;0.7257080078125;61.79999984397;310;1.62658691406251E-05;10 mA;
64.4602138372536;0.726318359375;61.999999843465;311;1.53503417968751E-05;10 mA;
64.6602138367487;0.72662353515625;62.1999998429601;312;1.65710449218751E-05;10 mA;
64.8602138362437;0.72723388671875;62.3999998424551;313;1.312255859375E-05;10 mA;
65.0602138357388;0.72784423828125;62.5999998419502;314;1.483154296875E-05;10 mA;
65.2602138352338;0.7281494140625;62.7999998414452;315;1.6632080078125E-05;10 mA;
65.4602138347288;0.728759765625;62.9999998409403;316;1.434326171875E-05;10 mA;
65.6602138342239;0.7293701171875;63.1999998404353;317;1.5380859375E-05;10 mA;
65.8602138337189;0.72967529296875;63.3999998399304;318;1.7120361328125E-05;10 mA;
66.060213833214;0.73028564453125;63.5999998394254;319;1.66015625E-05;10 mA;
66.260213832709;0.7305908203125;63.7999998389205;320;1.62658691406251E-05;10 mA;
66.4602138322041;0.731201171875;63.9999998384155;321;1.678466796875E-05;10 mA;
66.6602138316991;0.7318115234375;64.1999998379106;322;1.373291015625E-05;10 mA;
66.8602138311942;0.73211669921875;64.3999998374056;323;1.629638671875E-05;10 mA;
67.0602138306892;0.73272705078125;64.5999998369007;324;1.556396484375E-05;10 mA;
67.2602138301843;0.7330322265625;64.7999998363957;325;1.53503417968751E-05;10 mA;
67.4602138296793;0.733642578125;64.9999998358908;326;1.5228271484375E-05;10 mA;
67.6602138291744;0.7342529296875;65.1999998353858;327;1.39770507812501E-05;10 mA;
67.8602138286694;0.73455810546875;65.3999998348809;328;1.556396484375E-05;10 mA;
68.0602138281645;0.73516845703125;65.5999998343759;329;1.69677734375E-05;10 mA;
68.2602138276595;0.7354736328125;65.799999833871;330;1.513671875E-05;10 mA;
68.4602138271546;0.736083984375;65.999999833366;331;1.59606933593751E-05;10 mA;
68.6602138266496;0.7366943359375;66.1999998328611;332;1.59606933593751E-05;10 mA;
68.8602138261447;0.73699951171875;66.3999998323561;333;1.434326171875E-05;10 mA;
69.0602138256397;0.7373046875;66.5999998318512;334;1.66015625E-05;10 mA;
69.2602138251348;0.7379150390625;66.7999998313462;335;1.5380859375E-05;10 mA;
69.4602138246298;0.738525390625;66.9999998308413;336;1.54724121093749E-05;10 mA;
69.6602138241249;0.73883056640625;67.1999998303363;337;1.66015625E-05;10 mA;
69.8602138236199;0.7391357421875;67.3999998298314;338;1.629638671875E-05;10 mA;
70.060213823115;0.73974609375;67.5999998293264;339;1.6326904296875E-05;10 mA;
70.26021382261;0.7403564453125;67.7999998288215;340;1.59606933593751E-05;10 mA;
70.4602138221051;0.74066162109375;67.9999998283165;341;1.53198242187499E-05;10 mA;
70.6602138216001;0.740966796875;68.1999998278116;342;1.60827636718749E-05;10 mA;
70.8602138210952;0.7415771484375;68.3999998273066;343;1.58081054687501E-05;10 mA;
71.0602138205902;0.74188232421875;68.5999998268016;344;1.45874023437501E-05;10 mA;
71.2602138200853;0.74249267578125;68.7999998262967;345;1.446533203125E-05;10 mA;
71.4602138195803;0.7427978515625;68.9999998257917;346;1.5533447265625E-05;10 mA;
71.6602138190754;0.743408203125;69.1999998252868;347;1.678466796875E-05;10 mA;
71.8602138185704;0.74371337890625;69.3999998247818;348;1.5289306640625E-05;10 mA;
72.0602138180654;0.74432373046875;69.5999998242769;349;1.38244628906251E-05;10 mA;
72.2602138175605;0.74462890625;69.7999998237719;350;1.60827636718749E-05;10 mA;
72.4602138170555;0.74493408203125;69.999999823267;351;1.4373779296875E-05;10 mA;
72.6602138165506;0.74554443359375;70.199999822762;352;1.44042968749999E-05;10 mA;
72.8602138160456;0.74615478515625;70.3999998222571;353;1.40991210937499E-05;10 mA;
73.0602138155407;0.7464599609375;70.5999998217521;354;1.57470703125E-05;10 mA;
73.2602138150357;0.74676513671875;70.7999998212472;355;1.544189453125E-05;10 mA;
73.4602138145308;0.74737548828125;70.9999998207422;356;1.50451660156251E-05;10 mA;
73.6602138140258;0.7476806640625;71.1999998202373;357;1.4923095703125E-05;10 mA;
73.8602138135209;0.748291015625;71.3999998197323;358;1.507568359375E-05;10 mA;
74.0602138130159;0.74859619140625;71.5999998192274;359;1.41296386718751E-05;10 mA;
74.260213812511;0.7489013671875;71.7999998187224;360;1.666259765625E-05;10 mA;
74.460213812006;0.74951171875;71.9999998182175;361;1.5716552734375E-05;10 mA;
74.6602138115011;0.74981689453125;72.1999998177125;362;1.62658691406251E-05;10 mA;
74.8602138109961;0.7501220703125;72.3999998172076;363;1.39770507812501E-05;10 mA;
75.0602138104912;0.750732421875;72.5999998167026;364;1.678466796875E-05;10 mA;
75.2602138099862;0.75103759765625;72.7999998161977;365;1.47399902343751E-05;10 mA;
75.4602138094813;0.7513427734375;72.9999998156927;366;1.68457031249999E-05;10 mA;
75.6602138089763;0.751953125;73.1999998151878;367;1.373291015625E-05;10 mA;
75.8602138084714;0.75225830078125;73.3999998146828;368;1.48925781250001E-05;10 mA;
76.0602138079664;0.7525634765625;73.5999998141779;369;1.45874023437501E-05;10 mA;
76.2602138074615;0.753173828125;73.7999998136729;370;1.605224609375E-05;10 mA;
76.4602138069565;0.75347900390625;73.999999813168;371;1.5716552734375E-05;10 mA;
76.6602138064516;0.7537841796875;74.199999812663;372;1.4495849609375E-05;10 mA;
76.8602138059466;0.75439453125;74.3999998121581;373;1.507568359375E-05;10 mA;
77.0602138054417;0.75469970703125;74.5999998116531;374;1.5533447265625E-05;10 mA;
77.2602138049367;0.7550048828125;74.7999998111482;375;1.63879394531249E-05;10 mA;
77.4602138044318;0.75531005859375;74.9999998106432;376;1.44348144531251E-05;10 mA;
77.6602138039268;0.75592041015625;75.1999998101383;377;1.507568359375E-05;10 mA;
77.8602138034219;0.7562255859375;75.3999998096333;378;1.61132812500001E-05;10 mA;
78.0602138029169;0.7568359375;75.5999998091283;379;1.5533447265625E-05;10 mA;
78.260213802412;0.75714111328125;75.7999998086234;380;1.45568847656249E-05;10 mA;
78.460213801907;0.75775146484375;75.9999998081184;381;1.47399902343751E-05;10 mA;
78.6602138014021;0.758056640625;76.1999998076135;382;1.483154296875E-05;10 mA;
78.8602138008971;0.75836181640625;76.3999998071085;383;1.6448974609375E-05;10 mA;
79.0602138003921;0.75897216796875;76.5999998066036;384;1.4801025390625E-05;10 mA;
79.2602137998872;0.75927734375;76.7999998060986;385;1.5228271484375E-05;10 mA;
79.4602137993822;0.75958251953125;76.9999998055937;386;1.5838623046875E-05;10 mA;
79.6602137988773;0.7598876953125;77.1999998050887;387;1.51672363281249E-05;10 mA;
79.8602137983723;0.760498046875;77.3999998045838;388;1.434326171875E-05;10 mA;
80.0602137978674;0.76080322265625;77.5999998040788;389;1.53503417968751E-05;10 mA;
80.2602137973624;0.76141357421875;77.7999998035739;390;1.4678955078125E-05;10 mA;
80.4602137968575;0.76171875;77.9999998030689;391;1.6448974609375E-05;10 mA;
80.6602137963525;0.76202392578125;78.199999802564;392;1.4617919921875E-05;10 mA;
80.8602137958476;0.76263427734375;78.399999802059;393;1.5289306640625E-05;10 mA;
81.0602137953426;0.762939453125;78.5999998015541;394;1.47094726562499E-05;10 mA;
81.2602137948377;0.7635498046875;78.7999998010491;395;1.373291015625E-05;10 mA;
81.4602137943327;0.76385498046875;78.9999998005442;396;1.6448974609375E-05;10 mA;
81.6602137938278;0.76416015625;79.1999998000392;397;1.4068603515625E-05;10 mA;
81.8602137933228;0.76446533203125;79.3999997995343;398;1.5380859375E-05;10 mA;
82.0602137928179;0.76507568359375;79.5999997990293;399;1.33056640625E-05;10 mA;
82.2602137923129;0.765380859375;79.7999997985244;400;1.38244628906251E-05;10 mA;
82.460213791808;0.7659912109375;79.9999997980194;401;1.64184570312501E-05;10 mA;
82.660213791303;0.76629638671875;80.1999997975145;402;1.7669677734375E-05;10 mA;
82.8602137907981;0.7666015625;80.3999997970095;403;1.51672363281249E-05;10 mA;
83.0602137902931;0.7672119140625;80.5999997965046;404;1.6021728515625E-05;10 mA;
83.2602137897882;0.76751708984375;80.7999997959996;405;1.5289306640625E-05;10 mA;
83.4602137892832;0.767822265625;80.9999997954947;406;1.4068603515625E-05;10 mA;
83.6602137887783;0.7684326171875;81.1999997949897;407;1.361083984375E-05;10 mA;
83.8602137882733;0.76873779296875;81.3999997944848;408;1.3580322265625E-05;10 mA;
84.0602137877684;0.76934814453125;81.5999997939798;409;1.8798828125E-05;10 mA;
84.2602137872634;0.7696533203125;81.7999997934749;410;1.45874023437501E-05;10 mA;
84.4602137867585;0.76995849609375;81.9999997929699;411;1.40991210937499E-05;10 mA;
84.6602137862535;0.770263671875;82.199999792465;412;1.2786865234375E-05;10 mA;
84.8602137857486;0.7708740234375;82.39999979196;413;1.416015625E-05;10 mA;
85.0602137852436;0.77117919921875;82.599999791455;414;1.79138183593749E-05;10 mA;
85.2602137847387;0.771484375;82.7999997909501;415;1.788330078125E-05;10 mA;
85.4602137842337;0.77178955078125;82.9999997904451;416;1.47094726562499E-05;10 mA;
85.6602137837288;0.7720947265625;83.1999997899402;417;1.727294921875E-05;10 mA;
85.8602137832238;0.772705078125;83.3999997894352;418;1.3427734375E-05;10 mA;
86.0602137827188;0.77301025390625;83.5999997889303;419;1.65710449218751E-05;10 mA;
86.2602137822139;0.7733154296875;83.7999997884253;420;1.50146484374999E-05;10 mA;
86.4602137817089;0.77362060546875;83.9999997879204;421;1.4984130859375E-05;10 mA;
86.660213781204;0.77423095703125;84.1999997874154;422;1.36413574218749E-05;10 mA;
86.860213780699;0.7745361328125;84.3999997869105;423;1.67236328125001E-05;10 mA;
87.0602137801941;0.77484130859375;84.5999997864055;424;1.7425537109375E-05;10 mA;
87.2602137796891;0.775146484375;84.7999997859006;425;1.53503417968751E-05;10 mA;
87.4602137791842;0.77545166015625;84.9999997853956;426;1.5533447265625E-05;10 mA;
87.6602137786792;0.7757568359375;85.1999997848907;427;1.5899658203125E-05;10 mA;
87.8602137781743;0.7763671875;85.3999997843857;428;1.6326904296875E-05;10 mA;
88.0602137776693;0.77667236328125;85.5999997838808;429;1.52587890625E-05;10 mA;
88.2602137771644;0.7769775390625;85.7999997833758;430;1.45568847656249E-05;10 mA;
88.4602137766594;0.77728271484375;85.9999997828709;431;1.68457031249999E-05;10 mA;
88.6602137761545;0.777587890625;86.1999997823659;432;1.6326904296875E-05;10 mA;
88.8602137756495;0.7781982421875;86.399999781861;433;1.5838623046875E-05;10 mA;
89.0602137751446;0.77850341796875;86.599999781356;434;1.73034667968749E-05;10 mA;
89.2602137746396;0.77880859375;86.7999997808511;435;1.71508789062499E-05;10 mA;
89.4602137741347;0.77911376953125;86.9999997803461;436;1.73034667968749E-05;10 mA;
89.6602137736297;0.7794189453125;87.1999997798412;437;1.39770507812501E-05;10 mA;
89.8602137731248;0.77972412109375;87.3999997793362;438;1.70288085937501E-05;10 mA;
90.0602137726198;0.780029296875;87.5999997788313;439;1.52587890625E-05;10 mA;
90.2602137721149;0.7806396484375;87.7999997783263;440;1.40380859375E-05;10 mA;
90.4602137716099;0.78094482421875;87.9999997778214;441;1.77001953125E-05;10 mA;
90.660213771105;0.78125;88.1999997773164;442;1.69982910156249E-05;10 mA;
90.8602137706;0.78155517578125;88.3999997768115;443;1.751708984375E-05;10 mA;
91.0602137700951;0.7818603515625;88.5999997763065;444;1.708984375E-05;10 mA;
91.2602137695901;0.78216552734375;88.7999997758016;445;1.739501953125E-05;10 mA;
91.4602137690852;0.782470703125;88.9999997752966;446;1.4068603515625E-05;10 mA;
91.6602137685802;0.78277587890625;89.1999997747916;447;1.79138183593749E-05;10 mA;
91.8602137680753;0.7830810546875;89.3999997742867;448;1.71813964843751E-05;10 mA;
92.0602137675703;0.78369140625;89.5999997737817;449;1.507568359375E-05;10 mA;
92.2602137670654;0.78399658203125;89.7999997732768;450;1.67236328125001E-05;10 mA;
92.4602137665604;0.7843017578125;89.9999997727718;451;1.47094726562499E-05;10 mA;
92.6602137660554;0.78460693359375;90.1999997722669;452;1.5899658203125E-05;10 mA;
92.8602137655505;0.784912109375;90.3999997717619;453;1.59912109375E-05;10 mA;
93.0602137650455;0.78521728515625;90.599999771257;454;1.3458251953125E-05;10 mA;
93.2602137645406;0.7855224609375;90.799999770752;455;1.5533447265625E-05;10 mA;
93.4602137640356;0.78582763671875;90.9999997702471;456;1.7547607421875E-05;10 mA;
93.6602137635307;0.7861328125;91.1999997697421;457;1.6632080078125E-05;10 mA;
93.8602137630257;0.7867431640625;91.3999997692372;458;1.58081054687501E-05;10 mA;
94.0602137625208;0.78704833984375;91.5999997687322;459;1.5899658203125E-05;10 mA;
94.2602137620158;0.787353515625;91.7999997682273;460;1.62658691406251E-05;10 mA;
94.4602137615109;0.78765869140625;91.9999997677223;461;1.5899658203125E-05;10 mA;
94.6602137610059;0.7879638671875;92.1999997672174;462;1.5533447265625E-05;10 mA;
94.860213760501;0.78826904296875;92.3999997667124;463;1.48620605468749E-05;10 mA;
95.060213759996;0.78857421875;92.5999997662075;464;1.6937255859375E-05;10 mA;
95.2602137594911;0.78887939453125;92.7999997657025;465;1.60827636718749E-05;10 mA;
95.4602137589861;0.7891845703125;92.9999997651976;466;1.6204833984375E-05;10 mA;
95.6602137584812;0.78948974609375;93.1999997646926;467;1.40991210937499E-05;10 mA;
95.8602137579762;0.789794921875;93.3999997641877;468;1.51977539062501E-05;10 mA;
96.0602137574713;0.79010009765625;93.5999997636827;469;1.422119140625E-05;10 mA;
96.2602137569663;0.7904052734375;93.7999997631778;470;1.312255859375E-05;10 mA;
96.4602137564614;0.79071044921875;93.9999997626728;471;1.5838623046875E-05;10 mA;
96.6602137559564;0.791015625;94.1999997621679;472;1.239013671875E-05;10 mA;
96.8602137554515;0.79132080078125;94.3999997616629;473;1.4617919921875E-05;10 mA;
97.0602137549465;0.7916259765625;94.599999761158;474;1.263427734375E-05;10 mA;
97.2602137544416;0.79193115234375;94.799999760653;475;1.56555175781251E-05;10 mA;
97.4602137539366;0.792236328125;94.9999997601481;476;1.39770507812501E-05;10 mA;
97.6602137534317;0.79254150390625;95.1999997596431;477;1.56249999999999E-05;10 mA;
97.8602137529267;0.7928466796875;95.3999997591382;478;1.5716552734375E-05;10 mA;
98.0602137524218;0.79315185546875;95.5999997586332;479;1.5533447265625E-05;10 mA;
98.2602137519168;0.79345703125;95.7999997581283;480;1.59301757812499E-05;10 mA;
98.4602137514119;0.79376220703125;95.9999997576233;481;1.38244628906251E-05;10 mA;
98.6602137509069;0.7940673828125;96.1999997571183;482;1.59606933593751E-05;10 mA;
98.860213750402;0.79437255859375;96.3999997566134;483;1.3427734375E-05;10 mA;
99.060213749897;0.794677734375;96.5999997561084;484;1.44348144531251E-05;10 mA;
99.2602137493921;0.79498291015625;96.7999997556035;485;1.4068603515625E-05;10 mA;
99.4602137488871;0.7952880859375;96.9999997550985;486;1.7547607421875E-05;10 mA;
99.6602137483821;0.79559326171875;97.1999997545936;487;1.39770507812501E-05;10 mA;
99.8602137478772;0.7958984375;97.3999997540886;488;1.73339843750001E-05;10 mA;
100.060213747372;0.79620361328125;97.5999997535837;489;1.6326904296875E-05;10 mA;
100.260213746867;0.7965087890625;97.7999997530787;490;1.35498046875E-05;10 mA;
100.460213746362;0.79681396484375;97.9999997525738;491;1.7730712890625E-05;10 mA;
100.660213745857;0.797119140625;98.1999997520688;492;1.6143798828125E-05;10 mA;
100.860213745352;0.79742431640625;98.3999997515639;493;1.495361328125E-05;10 mA;
101.060213744847;0.7977294921875;98.5999997510589;494;1.45874023437501E-05;10 mA;
101.260213744343;0.79803466796875;98.799999750554;495;1.47399902343751E-05;10 mA;
101.460213743838;0.79833984375;98.999999750049;496;1.416015625E-05;10 mA;
101.660213743333;0.79864501953125;99.1999997495441;497;1.66015625E-05;10 mA;
101.860213742828;0.7989501953125;99.3999997490391;498;1.7547607421875E-05;10 mA;
102.060213742323;0.79925537109375;99.5999997485342;499;1.5228271484375E-05;10 mA;
102.260213741818;0.799560546875;99.7999997480292;500;1.57775878906249E-05;10 mA;
102.460213741313;0.79986572265625;99.9999997475243;501;1.507568359375E-05;10 mA;
102.660213740808;0.8001708984375;100.199999747019;502;1.45263671875E-05;10 mA;
102.860213740303;0.80047607421875;100.399999746514;503;1.73339843750001E-05;10 mA;
103.060213739798;0.80078125;100.599999746009;504;1.53503417968751E-05;10 mA;
103.260213739293;0.80108642578125;100.799999745504;505;1.4312744140625E-05;10 mA;
103.460213738788;0.8013916015625;100.999999745;506;1.3763427734375E-05;10 mA;
103.660213738283;0.80169677734375;101.199999744495;507;1.42822265625001E-05;10 mA;
103.860213737778;0.802001953125;101.39999974399;508;1.53198242187499E-05;10 mA;
104.060213737273;0.80230712890625;101.599999743485;509;1.39465332031249E-05;10 mA;
104.260213736768;0.8026123046875;101.79999974298;510;1.5228271484375E-05;10 mA;
104.460213736263;0.80291748046875;101.999999742475;511;1.5106201171875E-05;10 mA;
104.660213735758;0.80322265625;102.19999974197;512;1.7120361328125E-05;10 mA;
104.860213735253;0.80352783203125;102.399999741465;513;1.629638671875E-05;10 mA;
105.060213734748;0.8038330078125;102.59999974096;514;1.5899658203125E-05;10 mA;
105.260213734244;0.80413818359375;102.799999740455;515;1.58081054687501E-05;10 mA;
105.460213733739;0.804443359375;102.99999973995;516;1.708984375E-05;10 mA;
105.660213733234;0.80474853515625;103.199999739445;517;1.54724121093749E-05;10 mA;
105.860213732729;0.8050537109375;103.39999973894;518;1.44042968749999E-05;10 mA;
106.060213732224;0.80535888671875;103.599999738435;519;1.5106201171875E-05;10 mA;
106.260213731719;0.8056640625;103.79999973793;520;1.39465332031249E-05;10 mA;
106.460213731214;0.80596923828125;103.999999737425;521;1.7059326171875E-05;10 mA;
106.660213730709;0.8062744140625;104.19999973692;522;1.7242431640625E-05;10 mA;
106.860213730204;0.80657958984375;104.399999736415;523;1.678466796875E-05;10 mA;
107.060213729699;0.80718994140625;104.59999973591;524;1.6937255859375E-05;10 mA;
107.260213729194;0.80718994140625;104.799999735405;525;1.7364501953125E-05;10 mA;
107.460213728689;0.8074951171875;104.9999997349;526;1.605224609375E-05;10 mA;
107.660213728184;0.80780029296875;105.199999734396;527;1.5594482421875E-05;10 mA;
107.860213727679;0.80810546875;105.399999733891;528;1.66931152343749E-05;10 mA;
108.060213727174;0.80841064453125;105.599999733386;529;1.44348144531251E-05;10 mA;
108.260213726669;0.8087158203125;105.799999732881;530;1.617431640625E-05;10 mA;
108.460213726164;0.80902099609375;105.999999732376;531;1.58081054687501E-05;10 mA;
108.660213725659;0.809326171875;106.199999731871;532;1.495361328125E-05;10 mA;
108.860213725154;0.80963134765625;106.399999731366;533;1.727294921875E-05;10 mA;
109.060213724649;0.8099365234375;106.599999730861;534;1.46484375E-05;10 mA;
109.260213724144;0.81024169921875;106.799999730356;535;1.4923095703125E-05;10 mA;
109.46021372364;0.810546875;106.999999729851;536;1.40991210937499E-05;10 mA;
109.660213723135;0.81085205078125;107.199999729346;537;1.385498046875E-05;10 mA;
109.86021372263;0.8111572265625;107.399999728841;538;1.56249999999999E-05;10 mA;
110.060213722125;0.8111572265625;107.599999728336;539;1.54724121093749E-05;10 mA;
110.26021372162;0.811767578125;107.799999727831;540;1.39770507812501E-05;10 mA;
110.460213721115;0.811767578125;107.999999727326;541;1.6754150390625E-05;10 mA;
110.66021372061;0.8123779296875;108.199999726821;542;1.6326904296875E-05;10 mA;
110.860213720105;0.8123779296875;108.399999726316;543;1.568603515625E-05;10 mA;
111.0602137196;0.81268310546875;108.599999725811;544;1.66931152343749E-05;10 mA;
111.260213719095;0.81298828125;108.799999725306;545;1.39770507812501E-05;10 mA;
111.46021371859;0.81329345703125;108.999999724801;546;1.5228271484375E-05;10 mA;
111.660213718085;0.8135986328125;109.199999724297;547;1.6204833984375E-05;10 mA;
111.86021371758;0.81390380859375;109.399999723792;548;1.45874023437501E-05;10 mA;
112.060213717075;0.814208984375;109.599999723287;549;1.416015625E-05;10 mA;
112.26021371657;0.81451416015625;109.799999722782;550;1.6204833984375E-05;10 mA;
112.460213716065;0.8148193359375;109.999999722277;551;1.73339843750001E-05;10 mA;
112.66021371556;0.81512451171875;110.199999721772;552;1.53198242187499E-05;10 mA;
112.860213715055;0.8154296875;110.399999721267;553;1.3702392578125E-05;10 mA;
113.06021371455;0.8154296875;110.599999720762;554;1.51672363281249E-05;10 mA;
113.260213714045;0.81573486328125;110.799999720257;555;1.67236328125001E-05;10 mA;
113.46021371354;0.8160400390625;110.999999719752;556;1.4495849609375E-05;10 mA;
113.660213713036;0.81634521484375;111.199999719247;557;1.64794921875E-05;10 mA;
113.860213712531;0.816650390625;111.399999718742;558;1.51672363281249E-05;10 mA;
114.060213712026;0.81695556640625;111.599999718237;559;1.79138183593749E-05;10 mA;
114.260213711521;0.8172607421875;111.799999717732;560;1.50146484374999E-05;10 mA;
114.460213711016;0.81756591796875;111.999999717227;561;1.65710449218751E-05;10 mA;
114.660213710511;0.81787109375;112.199999716722;562;1.79443359375001E-05;10 mA;
114.860213710006;0.81787109375;112.399999716217;563;1.422119140625E-05;10 mA;
115.060213709501;0.81817626953125;112.599999715712;564;1.51977539062501E-05;10 mA;
115.260213708996;0.8184814453125;112.799999715207;565;1.45568847656249E-05;10 mA;
115.460213708491;0.81878662109375;112.999999714702;566;1.5594482421875E-05;10 mA;
115.660213707986;0.819091796875;113.199999714197;567;1.4068603515625E-05;10 mA;
115.860213707481;0.81939697265625;113.399999713693;568;1.7547607421875E-05;10 mA;
116.060213706976;0.8197021484375;113.599999713188;569;1.40380859375E-05;10 mA;
116.260213706471;0.82000732421875;113.799999712683;570;1.64794921875E-05;10 mA;
116.460213705966;0.8203125;113.999999712178;571;1.4495849609375E-05;10 mA;
116.660213705461;0.82061767578125;114.199999711673;572;1.50451660156251E-05;10 mA;
116.860213704956;0.8209228515625;114.399999711168;573;1.568603515625E-05;10 mA;
117.060213704451;0.8209228515625;114.599999710663;574;1.59606933593751E-05;10 mA;
117.260213703946;0.82122802734375;114.799999710158;575;1.4801025390625E-05;10 mA;
117.460213703441;0.821533203125;114.999999709653;576;1.385498046875E-05;10 mA;
117.660213702937;0.82183837890625;115.199999709148;577;1.751708984375E-05;10 mA;
117.860213702432;0.8221435546875;115.399999708643;578;1.47094726562499E-05;10 mA;
118.060213701927;0.82244873046875;115.599999708138;579;1.38244628906251E-05;10 mA;
118.260213701422;0.82275390625;115.799999707633;580;1.4312744140625E-05;10 mA;
118.460213700917;0.82305908203125;115.999999707128;581;1.8157958984375E-05;10 mA;
118.660213700412;0.8233642578125;116.199999706623;582;1.7730712890625E-05;10 mA;
118.860213699907;0.8233642578125;116.399999706118;583;1.56555175781251E-05;10 mA;
119.060213699402;0.82366943359375;116.599999705613;584;1.6204833984375E-05;10 mA;
119.260213698897;0.823974609375;116.799999705108;585;1.62353515624999E-05;10 mA;
119.460213698392;0.82427978515625;116.999999704603;586;1.56555175781251E-05;10 mA;
119.660213697887;0.8245849609375;117.199999704098;587;1.7974853515625E-05;10 mA;
119.860213697382;0.82489013671875;117.399999703593;588;1.5869140625E-05;10 mA;
120.060213696877;0.82489013671875;117.599999703089;589;1.79138183593749E-05;10 mA;
120.260213696372;0.8251953125;117.799999702584;590;1.67236328125001E-05;10 mA;
120.460213695867;0.82550048828125;117.999999702079;591;1.36718750000001E-05;10 mA;
120.660213695362;0.8258056640625;118.199999701574;592;1.23291015625E-05;10 mA;
120.860213694857;0.82611083984375;118.399999701069;593;1.6632080078125E-05;10 mA;
121.060213694352;0.82611083984375;118.599999700564;594;1.7852783203125E-05;10 mA;
121.260213693847;0.826416015625;118.799999700059;595;1.28784179687499E-05;10 mA;
121.460213693342;0.82672119140625;118.999999699554;596;1.5899658203125E-05;10 mA;
121.660213692837;0.8270263671875;119.199999699049;597;1.483154296875E-05;10 mA;
121.860213692333;0.82733154296875;119.399999698544;598;1.3916015625E-05;10 mA;
122.060213691828;0.82733154296875;119.599999698039;599;1.66931152343749E-05;10 mA;
122.260213691323;0.82763671875;119.799999697534;600;1.8035888671875E-05;10 mA;
122.460213690818;0.82794189453125;119.999999697029;601;1.4373779296875E-05;10 mA;
122.660213690313;0.8282470703125;120.199999696524;602;1.4007568359375E-05;10 mA;
122.860213689808;0.8282470703125;120.399999696019;603;1.62353515624999E-05;10 mA;
123.060213689303;0.82855224609375;120.599999695514;604;1.6448974609375E-05;10 mA;
123.260213688798;0.828857421875;120.799999695009;605;1.15356445312501E-05;10 mA;
123.460213688293;0.82916259765625;120.999999694504;606;1.812744140625E-05;10 mA;
123.660213687788;0.82916259765625;121.199999693999;607;1.434326171875E-05;10 mA;
123.860213687283;0.8294677734375;121.399999693494;608;1.45263671875E-05;10 mA;
124.060213686778;0.82977294921875;121.59999969299;609;1.812744140625E-05;10 mA;
124.260213686273;0.82977294921875;121.799999692485;610;1.47399902343751E-05;10 mA;
124.460213685768;0.830078125;121.99999969198;611;1.83715820312499E-05;10 mA;
124.660213685263;0.83038330078125;122.199999691475;612;1.4984130859375E-05;10 mA;
124.860213684758;0.8306884765625;122.39999969097;613;1.45874023437501E-05;10 mA;
125.060213684253;0.8306884765625;122.599999690465;614;1.44042968749999E-05;10 mA;
125.260213683748;0.83099365234375;122.79999968996;615;1.6510009765625E-05;10 mA;
125.460213683243;0.831298828125;122.999999689455;616;1.4495849609375E-05;10 mA;
125.660213682738;0.83160400390625;123.19999968895;617;1.74865722656251E-05;10 mA;
125.860213682234;0.83160400390625;123.399999688445;618;1.64184570312501E-05;10 mA;
126.060213681729;0.8319091796875;123.59999968794;619;1.53503417968751E-05;10 mA;
126.260213681224;0.83221435546875;123.799999687435;620;1.77001953125E-05;10 mA;
126.460213680719;0.83251953125;123.99999968693;621;1.66015625E-05;10 mA;
126.660213680214;0.83282470703125;124.199999686425;622;1.666259765625E-05;10 mA;
126.860213679709;0.83282470703125;124.39999968592;623;1.58081054687501E-05;10 mA;
127.060213679204;0.8331298828125;124.599999685415;624;1.40380859375E-05;10 mA;
127.260213678699;0.83343505859375;124.79999968491;625;1.5533447265625E-05;10 mA;
127.460213678194;0.83343505859375;124.999999684405;626;1.434326171875E-05;10 mA;
127.660213677689;0.833740234375;125.1999996839;627;1.7425537109375E-05;10 mA;
127.860213677184;0.83404541015625;125.399999683395;628;1.35192871093751E-05;10 mA;
128.060213676679;0.8343505859375;125.59999968289;629;1.79443359375001E-05;10 mA;
128.260213676174;0.83465576171875;125.799999682386;630;1.66931152343749E-05;10 mA;
128.460213675669;0.83465576171875;125.999999681881;631;1.57470703125E-05;10 mA;
128.660213675164;0.8349609375;126.199999681376;632;1.42822265625001E-05;10 mA;
128.860213674659;0.83526611328125;126.399999680871;633;1.64184570312501E-05;10 mA;
129.060213674154;0.8355712890625;126.599999680366;634;1.6448974609375E-05;10 mA;
129.260213673649;0.8355712890625;126.799999679861;635;1.690673828125E-05;10 mA;
129.460213673144;0.83587646484375;126.999999679356;636;1.57775878906249E-05;10 mA;
129.660213672639;0.836181640625;127.199999678851;637;1.446533203125E-05;10 mA;
129.860213672134;0.83648681640625;127.399999678346;638;1.5289306640625E-05;10 mA;
130.06021367163;0.83648681640625;127.599999677841;639;1.79138183593749E-05;10 mA;
130.260213671125;0.8367919921875;127.799999677336;640;1.34887695312499E-05;10 mA;
130.46021367062;0.83709716796875;127.999999676831;641;1.361083984375E-05;10 mA;
130.660213670115;0.83709716796875;128.199999676326;642;1.52587890625E-05;10 mA;
130.86021366961;0.83740234375;128.399999675821;643;1.7974853515625E-05;10 mA;
131.060213669105;0.83770751953125;128.599999675316;644;1.45874023437501E-05;10 mA;
131.2602136686;0.8380126953125;128.799999674811;645;1.3702392578125E-05;10 mA;
131.460213668095;0.8380126953125;128.999999674306;646;1.70288085937501E-05;10 mA;
131.66021366759;0.83831787109375;129.199999673801;647;1.6326904296875E-05;10 mA;
131.860213667085;0.838623046875;129.399999673296;648;1.7059326171875E-05;10 mA;
132.06021366658;0.838623046875;129.599999672791;649;1.54724121093749E-05;10 mA;
132.260213666075;0.83892822265625;129.799999672287;650;1.434326171875E-05;10 mA;
132.46021366557;0.8392333984375;129.999999671782;651;1.39770507812501E-05;10 mA;
132.660213665065;0.8392333984375;130.199999671277;652;1.6326904296875E-05;10 mA;
132.86021366456;0.83953857421875;130.399999670772;653;1.5838623046875E-05;10 mA;
133.060213664055;0.83953857421875;130.599999670267;654;1.446533203125E-05;10 mA;
133.26021366355;0.83984375;130.799999669762;655;1.38244628906251E-05;10 mA;
133.460213663045;0.84014892578125;130.999999669257;656;1.69982910156249E-05;10 mA;
133.66021366254;0.84014892578125;131.199999668752;657;1.42822265625001E-05;10 mA;
133.860213662035;0.8404541015625;131.399999668247;658;1.422119140625E-05;10 mA;
134.06021366153;0.84075927734375;131.599999667742;659;1.361083984375E-05;10 mA;
134.260213661026;0.84075927734375;131.799999667237;660;1.7730712890625E-05;10 mA;
134.460213660521;0.841064453125;131.999999666732;661;1.4617919921875E-05;10 mA;
134.660213660016;0.84136962890625;132.199999666227;662;1.690673828125E-05;10 mA;
134.860213659511;0.8416748046875;132.399999665722;663;1.77001953125E-05;10 mA;
135.060213659006;0.8416748046875;132.599999665217;664;1.7852783203125E-05;10 mA;
135.260213658501;0.84197998046875;132.799999664712;665;1.40380859375E-05;10 mA;
135.460213657996;0.84197998046875;132.999999664207;666;1.666259765625E-05;10 mA;
135.660213657491;0.84228515625;133.199999663702;667;1.5533447265625E-05;10 mA;
135.860213656986;0.84259033203125;133.399999663197;668;1.72119140625E-05;10 mA;
136.060213656481;0.84259033203125;133.599999662692;669;1.373291015625E-05;10 mA;
136.260213655976;0.8428955078125;133.799999662187;670;1.4801025390625E-05;10 mA;
136.460213655471;0.84320068359375;133.999999661683;671;1.556396484375E-05;10 mA;
136.660213654966;0.84320068359375;134.199999661178;672;1.73339843750001E-05;10 mA;
136.860213654461;0.843505859375;134.399999660673;673;1.54724121093749E-05;10 mA;
137.060213653956;0.84381103515625;134.599999660168;674;1.71508789062499E-05;10 mA;
137.260213653451;0.84381103515625;134.799999659663;675;1.51977539062501E-05;10 mA;
137.460213652946;0.8441162109375;134.999999659158;676;1.46484375E-05;10 mA;
137.660213652441;0.84442138671875;135.199999658653;677;1.71813964843751E-05;10 mA;
137.860213651936;0.84442138671875;135.399999658148;678;1.4801025390625E-05;10 mA;
138.060213651431;0.8447265625;135.599999657643;679;1.69982910156249E-05;10 mA;
138.260213650927;0.8447265625;135.799999657138;680;1.5106201171875E-05;10 mA;
138.460213650422;0.84503173828125;135.999999656633;681;1.507568359375E-05;10 mA;
138.660213649917;0.8453369140625;136.199999656128;682;1.7120361328125E-05;10 mA;
138.860213649412;0.8453369140625;136.399999655623;683;1.5533447265625E-05;10 mA;
139.060213648907;0.84564208984375;136.599999655118;684;1.56249999999999E-05;10 mA;
139.260213648402;0.84564208984375;136.799999654613;685;1.5533447265625E-05;10 mA;
139.460213647897;0.845947265625;136.999999654108;686;1.605224609375E-05;10 mA;
139.660213647392;0.84625244140625;137.199999653603;687;1.7120361328125E-05;10 mA;
139.860213646887;0.84625244140625;137.399999653098;688;1.66015625E-05;10 mA;
140.060213646382;0.8465576171875;137.599999652593;689;1.7364501953125E-05;10 mA;
140.260213645877;0.84686279296875;137.799999652088;690;1.6632080078125E-05;10 mA;
140.460213645372;0.84686279296875;137.999999651583;691;1.5533447265625E-05;10 mA;
140.660213644867;0.84716796875;138.199999651079;692;1.568603515625E-05;10 mA;
140.860213644362;0.84747314453125;138.399999650574;693;1.4801025390625E-05;10 mA;
141.060213643857;0.84747314453125;138.599999650069;694;1.52587890625E-05;10 mA;
141.260213643352;0.8477783203125;138.799999649564;695;1.751708984375E-05;10 mA;
141.460213642847;0.84808349609375;138.999999649059;696;1.40380859375E-05;10 mA;
141.660213642342;0.84808349609375;139.199999648554;697;1.3916015625E-05;10 mA;
141.860213641837;0.848388671875;139.399999648049;698;1.63879394531249E-05;10 mA;
142.060213641332;0.84869384765625;139.599999647544;699;1.7669677734375E-05;10 mA;
142.260213640827;0.84869384765625;139.799999647039;700;1.727294921875E-05;10 mA;
142.460213640323;0.8489990234375;139.999999646534;701;1.385498046875E-05;10 mA;
142.660213639818;0.8489990234375;140.199999646029;702;1.690673828125E-05;10 mA;
142.860213639313;0.84930419921875;140.399999645524;703;1.7120361328125E-05;10 mA;
143.060213638808;0.849609375;140.599999645019;704;1.739501953125E-05;10 mA;
143.260213638303;0.849609375;140.799999644514;705;1.4312744140625E-05;10 mA;
143.460213637798;0.84991455078125;140.999999644009;706;1.666259765625E-05;10 mA;
143.660213637293;0.8502197265625;141.199999643504;707;1.42517089843749E-05;10 mA;WE(1).Potential > 0,85 V
143.860213636788;0.8502197265625;141.399999642999;708;1.57470703125E-05;10 mA;WE(1).Potential > 0,85 V
144.060213636283;0.85052490234375;141.599999642494;709;1.422119140625E-05;10 mA;WE(1).Potential > 0,85 V
144.260213635778;0.850830078125;141.799999641989;710;1.617431640625E-05;10 mA;WE(1).Potential > 0,85 V
