Time (s);WE(1).Potential (V);Corrected time (s);Index;WE(1).Current (A);Current range;Cutoffs
745.99639511654;0.18463134765625;0;1;1.44042968749999E-05;10 mA;WE(1).Potential > 0,85 V , WE(1).Potential > 0,85 V , WE(1).Potential > 0,85 V , WE(1).Potential > 0,85 V
746.196395116035;0.18707275390625;0.199999999495049;2;1.35498046875E-05;10 mA;
746.39639511553;0.18951416015625;0.399999998990097;3;1.52587890625E-05;10 mA;
746.596395115025;0.191864013671875;0.599999998485146;4;1.47399902343751E-05;10 mA;
746.79639511452;0.194122314453125;0.799999997980194;5;1.6357421875E-05;10 mA;
746.996395114015;0.196319580078125;0.999999997475243;6;1.666259765625E-05;10 mA;
747.19639511351;0.198394775390625;1.19999999697029;7;1.59912109375E-05;10 mA;
747.396395113005;0.200408935546875;1.39999999646534;8;1.33666992187501E-05;10 mA;
747.596395112501;0.202423095703125;1.59999999596039;9;1.63879394531249E-05;10 mA;
747.796395111996;0.204315185546875;1.79999999545544;10;1.4373779296875E-05;10 mA;
747.996395111491;0.2061767578125;1.99999999495049;11;1.5533447265625E-05;10 mA;
748.196395110986;0.2080078125;2.19999999444553;12;1.513671875E-05;10 mA;
748.396395110481;0.209808349609375;2.39999999394058;13;1.53503417968751E-05;10 mA;
748.596395109976;0.211578369140625;2.59999999343563;14;1.3427734375E-05;10 mA;
748.796395109471;0.21331787109375;2.79999999293068;15;1.44042968749999E-05;10 mA;
748.996395108966;0.21502685546875;2.99999999242573;16;1.41296386718751E-05;10 mA;
749.196395108461;0.2166748046875;3.19999999192078;17;1.44348144531251E-05;10 mA;
749.396395107956;0.218353271484375;3.39999999141583;18;1.35192871093751E-05;10 mA;
749.596395107451;0.219970703125;3.59999999091087;19;1.6815185546875E-05;10 mA;
749.796395106946;0.221588134765625;3.79999999040592;20;1.59912109375E-05;10 mA;
749.996395106441;0.22314453125;3.99999998990097;21;1.3458251953125E-05;10 mA;
750.196395105936;0.2247314453125;4.19999998939602;22;1.36718750000001E-05;10 mA;
750.396395105431;0.226287841796875;4.39999998889107;23;1.47399902343751E-05;10 mA;
750.596395104926;0.227813720703125;4.59999998838612;24;1.6326904296875E-05;10 mA;
750.796395104421;0.229339599609375;4.79999998788116;25;1.5289306640625E-05;10 mA;
750.996395103916;0.2308349609375;4.99999998737621;26;1.513671875E-05;10 mA;
751.196395103411;0.2322998046875;5.19999998687126;27;1.68457031249999E-05;10 mA;
751.396395102906;0.233795166015625;5.39999998636631;28;1.5533447265625E-05;10 mA;
751.596395102402;0.2352294921875;5.59999998586136;29;1.57775878906249E-05;10 mA;
751.796395101897;0.23663330078125;5.79999998535641;30;1.50146484374999E-05;10 mA;
751.996395101392;0.238037109375;5.99999998485146;31;1.678466796875E-05;10 mA;
752.196395100887;0.23944091796875;6.1999999843465;32;1.3916015625E-05;10 mA;
752.396395100382;0.240814208984375;6.39999998384155;33;1.568603515625E-05;10 mA;
752.596395099877;0.2421875;6.5999999833366;34;1.6632080078125E-05;10 mA;
752.796395099372;0.243560791015625;6.79999998283165;35;1.629638671875E-05;10 mA;
752.996395098867;0.244903564453125;6.9999999823267;36;1.7242431640625E-05;10 mA;
753.196395098362;0.246246337890625;7.19999998182175;37;1.46484375E-05;10 mA;
753.396395097857;0.24755859375;7.3999999813168;38;1.6448974609375E-05;10 mA;
753.596395097352;0.248870849609375;7.59999998081184;39;1.4495849609375E-05;10 mA;
753.796395096847;0.25018310546875;7.79999998030689;40;1.373291015625E-05;10 mA;
753.996395096342;0.251434326171875;7.99999997980194;41;1.3092041015625E-05;10 mA;
754.196395095837;0.25274658203125;8.19999997929699;42;1.33666992187501E-05;10 mA;
754.396395095332;0.253997802734375;8.39999997879204;43;1.59606933593751E-05;10 mA;
754.596395094827;0.2552490234375;8.59999997828709;44;1.4312744140625E-05;10 mA;
754.796395094322;0.256500244140625;8.79999997778214;45;1.361083984375E-05;10 mA;
754.996395093817;0.257720947265625;8.99999997727718;46;1.47399902343751E-05;10 mA;
755.196395093312;0.258941650390625;9.19999997677223;47;1.434326171875E-05;10 mA;
755.396395092807;0.260162353515625;9.39999997626728;48;1.6510009765625E-05;10 mA;
755.596395092302;0.2613525390625;9.59999997576233;49;1.55029296875001E-05;10 mA;
755.796395091798;0.262542724609375;9.79999997525738;50;1.61132812500001E-05;10 mA;
755.996395091293;0.26373291015625;9.99999997475243;51;1.6632080078125E-05;10 mA;
756.196395090788;0.264923095703125;10.1999999742475;52;1.495361328125E-05;10 mA;
756.396395090283;0.266082763671875;10.3999999737425;53;1.34887695312499E-05;10 mA;
756.596395089778;0.267242431640625;10.5999999732376;54;1.36718750000001E-05;10 mA;
756.796395089273;0.268402099609375;10.7999999727326;55;1.51672363281249E-05;10 mA;
756.996395088768;0.269561767578125;10.9999999722277;56;1.739501953125E-05;10 mA;
757.196395088263;0.27069091796875;11.1999999717227;57;1.47399902343751E-05;10 mA;
757.396395087758;0.271820068359375;11.3999999712178;58;1.54724121093749E-05;10 mA;
757.596395087253;0.27294921875;11.5999999707128;59;1.6632080078125E-05;10 mA;
757.796395086748;0.2740478515625;11.7999999702079;60;1.7059326171875E-05;10 mA;
757.996395086243;0.275146484375;11.9999999697029;61;1.57470703125E-05;10 mA;
758.196395085738;0.276275634765625;12.199999969198;62;1.33666992187501E-05;10 mA;
758.396395085233;0.277374267578125;12.399999968693;63;1.3427734375E-05;10 mA;
758.596395084728;0.2784423828125;12.5999999681881;64;1.41296386718751E-05;10 mA;
758.796395084223;0.279510498046875;12.7999999676831;65;1.73034667968749E-05;10 mA;
758.996395083718;0.28057861328125;12.9999999671782;66;1.5533447265625E-05;10 mA;
759.196395083213;0.2816162109375;13.1999999666732;67;1.6021728515625E-05;10 mA;
759.396395082708;0.28265380859375;13.3999999661683;68;1.5594482421875E-05;10 mA;
759.596395082203;0.28369140625;13.5999999656633;69;1.47399902343751E-05;10 mA;
759.796395081699;0.284759521484375;13.7999999651583;70;1.6632080078125E-05;10 mA;
759.996395081194;0.2857666015625;13.9999999646534;71;1.666259765625E-05;10 mA;
760.196395080689;0.28680419921875;14.1999999641484;72;1.3397216796875E-05;10 mA;
760.396395080184;0.287811279296875;14.3999999636435;73;1.3702392578125E-05;10 mA;
760.596395079679;0.288848876953125;14.5999999631385;74;1.3702392578125E-05;10 mA;
760.796395079174;0.289825439453125;14.7999999626336;75;1.48620605468749E-05;10 mA;
760.996395078669;0.29083251953125;14.9999999621286;76;1.33056640625E-05;10 mA;
761.196395078164;0.29180908203125;15.1999999616237;77;1.446533203125E-05;10 mA;
761.396395077659;0.292816162109375;15.3999999611187;78;1.373291015625E-05;10 mA;
761.596395077154;0.293792724609375;15.5999999606138;79;1.739501953125E-05;10 mA;
761.796395076649;0.29473876953125;15.7999999601088;80;1.5899658203125E-05;10 mA;
761.996395076144;0.29571533203125;15.9999999596039;81;1.300048828125E-05;10 mA;
762.196395075639;0.29669189453125;16.1999999590989;82;1.678466796875E-05;10 mA;
762.396395075134;0.297637939453125;16.399999958594;83;1.67236328125001E-05;10 mA;
762.596395074629;0.298583984375;16.599999958089;84;1.65710449218751E-05;10 mA;
762.796395074124;0.299560546875;16.7999999575841;85;1.4617919921875E-05;10 mA;
762.996395073619;0.300506591796875;16.9999999570791;86;1.76086425781249E-05;10 mA;
763.196395073114;0.301422119140625;17.1999999565742;87;1.28173828125E-05;10 mA;
763.396395072609;0.302337646484375;17.3999999560692;88;1.4373779296875E-05;10 mA;
763.596395072104;0.303253173828125;17.5999999555643;89;1.5380859375E-05;10 mA;
763.796395071599;0.304168701171875;17.7999999550593;90;1.727294921875E-05;10 mA;
763.996395071095;0.30511474609375;17.9999999545544;91;1.35498046875E-05;10 mA;
764.19639507059;0.305999755859375;18.1999999540494;92;1.2847900390625E-05;10 mA;
764.396395070085;0.306884765625;18.3999999535445;93;1.46484375E-05;10 mA;
764.59639506958;0.30780029296875;18.5999999530395;94;1.37939453124999E-05;10 mA;
764.796395069075;0.308685302734375;18.7999999525346;95;1.788330078125E-05;10 mA;
764.99639506857;0.3095703125;18.9999999520296;96;1.48925781250001E-05;10 mA;
765.196395068065;0.310455322265625;19.1999999515247;97;1.6448974609375E-05;10 mA;
765.39639506756;0.31134033203125;19.3999999510197;98;1.76086425781249E-05;10 mA;
765.596395067055;0.312225341796875;19.5999999505148;99;1.2969970703125E-05;10 mA;
765.79639506655;0.3131103515625;19.7999999500098;100;1.80969238281251E-05;10 mA;
765.996395066045;0.313995361328125;19.9999999495049;101;1.58081054687501E-05;10 mA;
766.19639506554;0.314849853515625;20.1999999489999;102;1.30310058593749E-05;10 mA;
766.396395065035;0.31573486328125;20.399999948495;103;1.69982910156249E-05;10 mA;
766.59639506453;0.31658935546875;20.59999994799;104;1.38244628906251E-05;10 mA;
766.796395064025;0.31744384765625;20.799999947485;105;1.3458251953125E-05;10 mA;
766.99639506352;0.31829833984375;20.9999999469801;106;1.5289306640625E-05;10 mA;
767.196395063015;0.31915283203125;21.1999999464751;107;1.690673828125E-05;10 mA;
767.39639506251;0.32000732421875;21.3999999459702;108;1.73034667968749E-05;10 mA;
767.596395062005;0.320892333984375;21.5999999454652;109;1.57775878906249E-05;10 mA;
767.7963950615;0.32171630859375;21.7999999449603;110;1.739501953125E-05;10 mA;
767.996395060995;0.32257080078125;21.9999999444553;111;1.52587890625E-05;10 mA;
768.196395060491;0.323394775390625;22.1999999439504;112;1.70288085937501E-05;10 mA;
768.396395059986;0.324249267578125;22.3999999434454;113;1.6326904296875E-05;10 mA;
768.596395059481;0.3250732421875;22.5999999429405;114;1.26953125E-05;10 mA;
768.796395058976;0.325897216796875;22.7999999424355;115;1.434326171875E-05;10 mA;
768.996395058471;0.32672119140625;22.9999999419306;116;1.605224609375E-05;10 mA;
769.196395057966;0.327545166015625;23.1999999414256;117;1.48620605468749E-05;10 mA;
769.396395057461;0.328369140625;23.3999999409207;118;1.4801025390625E-05;10 mA;
769.596395056956;0.329193115234375;23.5999999404157;119;1.27563476562501E-05;10 mA;
769.796395056451;0.33001708984375;23.7999999399108;120;1.37939453124999E-05;10 mA;
769.996395055946;0.330841064453125;23.9999999394058;121;1.44348144531251E-05;10 mA;
770.196395055441;0.3316650390625;24.1999999389009;122;1.3458251953125E-05;10 mA;
770.396395054936;0.332489013671875;24.3999999383959;123;1.507568359375E-05;10 mA;
770.596395054431;0.33331298828125;24.599999937891;124;1.6754150390625E-05;10 mA;
770.796395053926;0.334136962890625;24.799999937386;125;1.3153076171875E-05;10 mA;
770.996395053421;0.3349609375;24.9999999368811;126;1.666259765625E-05;10 mA;
771.196395052916;0.33575439453125;25.1999999363761;127;1.361083984375E-05;10 mA;
771.396395052411;0.336578369140625;25.3999999358712;128;1.53503417968751E-05;10 mA;
771.596395051906;0.337371826171875;25.5999999353662;129;1.5716552734375E-05;10 mA;
771.796395051401;0.338165283203125;25.7999999348613;130;1.4923095703125E-05;10 mA;
771.996395050896;0.338958740234375;25.9999999343563;131;1.69677734375E-05;10 mA;
772.196395050392;0.339752197265625;26.1999999338514;132;1.678466796875E-05;10 mA;
772.396395049887;0.34051513671875;26.3999999333464;133;1.5838623046875E-05;10 mA;
772.596395049382;0.341339111328125;26.5999999328415;134;1.58081054687501E-05;10 mA;
772.796395048877;0.342132568359375;26.7999999323365;135;1.33666992187501E-05;10 mA;
772.996395048372;0.342926025390625;26.9999999318316;136;1.57470703125E-05;10 mA;
773.196395047867;0.34368896484375;27.1999999313266;137;1.629638671875E-05;10 mA;
773.396395047362;0.344482421875;27.3999999308217;138;1.6815185546875E-05;10 mA;
773.596395046857;0.34527587890625;27.5999999303167;139;1.422119140625E-05;10 mA;
773.796395046352;0.346038818359375;27.7999999298117;140;1.68457031249999E-05;10 mA;
773.996395045847;0.3468017578125;27.9999999293068;141;1.4984130859375E-05;10 mA;
774.196395045342;0.34759521484375;28.1999999288018;142;1.6815185546875E-05;10 mA;
774.396395044837;0.348388671875;28.3999999282969;143;1.57470703125E-05;10 mA;
774.596395044332;0.349151611328125;28.5999999277919;144;1.5716552734375E-05;10 mA;
774.796395043827;0.34991455078125;28.799999927287;145;1.544189453125E-05;10 mA;
774.996395043322;0.3507080078125;28.999999926782;146;1.690673828125E-05;10 mA;
775.196395042817;0.35150146484375;29.1999999262771;147;1.55029296875001E-05;10 mA;
775.396395042312;0.35223388671875;29.3999999257721;148;1.678466796875E-05;10 mA;
775.596395041807;0.352996826171875;29.5999999252672;149;1.507568359375E-05;10 mA;
775.796395041302;0.353759765625;29.7999999247622;150;1.434326171875E-05;10 mA;
775.996395040797;0.354522705078125;29.9999999242573;151;1.64184570312501E-05;10 mA;
776.196395040292;0.35528564453125;30.1999999237523;152;1.51672363281249E-05;10 mA;
776.396395039788;0.356048583984375;30.3999999232474;153;1.54724121093749E-05;10 mA;
776.596395039283;0.3568115234375;30.5999999227424;154;1.56249999999999E-05;10 mA;
776.796395038778;0.357574462890625;30.7999999222375;155;1.4068603515625E-05;10 mA;
776.996395038273;0.35833740234375;30.9999999217325;156;1.5533447265625E-05;10 mA;
777.196395037768;0.359100341796875;31.1999999212276;157;1.5594482421875E-05;10 mA;
777.396395037263;0.35986328125;31.3999999207226;158;1.56555175781251E-05;10 mA;
777.596395036758;0.360626220703125;31.5999999202177;159;1.45568847656249E-05;10 mA;
777.796395036253;0.361358642578125;31.7999999197127;160;1.422119140625E-05;10 mA;
777.996395035748;0.362152099609375;31.9999999192078;161;1.678466796875E-05;10 mA;
778.196395035243;0.3629150390625;32.1999999187028;162;1.55029296875001E-05;10 mA;
778.396395034738;0.363677978515625;32.3999999181979;163;1.5228271484375E-05;10 mA;
778.596395034233;0.36444091796875;32.5999999176929;164;1.4923095703125E-05;10 mA;
778.796395033728;0.365203857421875;32.799999917188;165;1.5411376953125E-05;10 mA;
778.996395033223;0.365966796875;32.999999916683;166;1.324462890625E-05;10 mA;
779.196395032718;0.36669921875;33.1999999161781;167;1.678466796875E-05;10 mA;
779.396395032213;0.36749267578125;33.3999999156731;168;1.5594482421875E-05;10 mA;
779.596395031708;0.36822509765625;33.5999999151682;169;1.69677734375E-05;10 mA;
779.796395031203;0.368988037109375;33.7999999146632;170;1.6937255859375E-05;10 mA;
779.996395030698;0.3697509765625;33.9999999141583;171;1.507568359375E-05;10 mA;
780.196395030193;0.3704833984375;34.1999999136533;172;1.373291015625E-05;10 mA;
780.396395029689;0.371246337890625;34.3999999131483;173;1.708984375E-05;10 mA;
780.596395029184;0.37200927734375;34.5999999126434;174;1.6632080078125E-05;10 mA;
780.796395028679;0.37274169921875;34.7999999121384;175;1.42822265625001E-05;10 mA;
780.996395028174;0.373504638671875;34.9999999116335;176;1.666259765625E-05;10 mA;
781.196395027669;0.374298095703125;35.1999999111285;177;1.37939453124999E-05;10 mA;
781.396395027164;0.37506103515625;35.3999999106236;178;1.3458251953125E-05;10 mA;
781.596395026659;0.37579345703125;35.5999999101186;179;1.58081054687501E-05;10 mA;
781.796395026154;0.376556396484375;35.7999999096137;180;1.40380859375E-05;10 mA;
781.996395025649;0.3773193359375;35.9999999091087;181;1.45874023437501E-05;10 mA;
782.196395025144;0.378082275390625;36.1999999086038;182;1.5380859375E-05;10 mA;
782.396395024639;0.37884521484375;36.3999999080988;183;1.4190673828125E-05;10 mA;
782.596395024134;0.379608154296875;36.5999999075939;184;1.3580322265625E-05;10 mA;
782.796395023629;0.380401611328125;36.7999999070889;185;1.727294921875E-05;10 mA;
782.996395023124;0.381134033203125;36.999999906584;186;1.7120361328125E-05;10 mA;
783.196395022619;0.38189697265625;37.199999906079;187;1.422119140625E-05;10 mA;
783.396395022114;0.382659912109375;37.3999999055741;188;1.605224609375E-05;10 mA;
783.596395021609;0.3834228515625;37.5999999050691;189;1.7120361328125E-05;10 mA;
783.796395021104;0.384185791015625;37.7999999045642;190;1.3458251953125E-05;10 mA;
783.996395020599;0.38494873046875;37.9999999040592;191;1.36718750000001E-05;10 mA;
784.196395020094;0.385711669921875;38.1999999035543;192;1.44042968749999E-05;10 mA;
784.396395019589;0.386474609375;38.3999999030493;193;1.64794921875E-05;10 mA;
784.596395019085;0.387237548828125;38.5999999025444;194;1.6357421875E-05;10 mA;
784.79639501858;0.38800048828125;38.7999999020394;195;1.30615234375001E-05;10 mA;
784.996395018075;0.388763427734375;38.9999999015345;196;1.7242431640625E-05;10 mA;
785.19639501757;0.3895263671875;39.1999999010295;197;1.690673828125E-05;10 mA;
785.396395017065;0.390289306640625;39.3999999005246;198;1.617431640625E-05;10 mA;
785.59639501656;0.39105224609375;39.5999999000196;199;1.60827636718749E-05;10 mA;
785.796395016055;0.391815185546875;39.7999998995147;200;1.5716552734375E-05;10 mA;
785.99639501555;0.392547607421875;39.9999998990097;201;1.3458251953125E-05;10 mA;
786.196395015045;0.393341064453125;40.1999998985048;202;1.62658691406251E-05;10 mA;
786.39639501454;0.394073486328125;40.3999998979998;203;1.27258300781249E-05;10 mA;
786.596395014035;0.394866943359375;40.5999998974949;204;1.64794921875E-05;10 mA;
786.79639501353;0.395599365234375;40.7999998969899;205;1.312255859375E-05;10 mA;
786.996395013025;0.396392822265625;40.999999896485;206;1.54724121093749E-05;10 mA;
787.19639501252;0.39715576171875;41.19999989598;207;1.312255859375E-05;10 mA;
787.396395012015;0.39788818359375;41.399999895475;208;1.361083984375E-05;10 mA;
787.59639501151;0.398681640625;41.5999998949701;209;1.4495849609375E-05;10 mA;
787.796395011005;0.399444580078125;41.7999998944651;210;1.63879394531249E-05;10 mA;
787.9963950105;0.40020751953125;41.9999998939602;211;1.568603515625E-05;10 mA;
788.196395009995;0.40093994140625;42.1999998934552;212;1.68762207031251E-05;10 mA;
788.39639500949;0.401702880859375;42.3999998929503;213;1.32141113281251E-05;10 mA;
788.596395008985;0.402496337890625;42.5999998924453;214;1.38244628906251E-05;10 mA;
788.796395008481;0.40325927734375;42.7999998919404;215;1.46484375E-05;10 mA;
788.996395007976;0.404022216796875;42.9999998914354;216;1.48620605468749E-05;10 mA;
789.196395007471;0.404754638671875;43.1999998909305;217;1.40991210937499E-05;10 mA;
789.396395006966;0.405517578125;43.3999998904255;218;1.385498046875E-05;10 mA;
789.596395006461;0.40631103515625;43.5999998899206;219;1.33361816406249E-05;10 mA;
789.796395005956;0.407073974609375;43.7999998894156;220;1.6021728515625E-05;10 mA;
789.996395005451;0.407867431640625;43.9999998889107;221;1.5411376953125E-05;10 mA;
790.196395004946;0.40863037109375;44.1999998884057;222;1.44348144531251E-05;10 mA;
790.396395004441;0.409423828125;44.3999998879008;223;1.4007568359375E-05;10 mA;
790.596395003936;0.41021728515625;44.5999998873958;224;1.33056640625E-05;10 mA;
790.796395003431;0.410980224609375;44.7999998868909;225;1.727294921875E-05;10 mA;
790.996395002926;0.411773681640625;44.9999998863859;226;1.47399902343751E-05;10 mA;
791.196395002421;0.412567138671875;45.199999885881;227;1.35498046875E-05;10 mA;
791.396395001916;0.413360595703125;45.399999885376;228;1.68762207031251E-05;10 mA;
791.596395001411;0.414154052734375;45.5999998848711;229;1.5289306640625E-05;10 mA;
791.796395000906;0.414947509765625;45.7999998843661;230;1.35498046875E-05;10 mA;
791.996395000401;0.41571044921875;45.9999998838612;231;1.617431640625E-05;10 mA;
792.196394999896;0.416473388671875;46.1999998833562;232;1.416015625E-05;10 mA;
792.396394999391;0.417236328125;46.3999998828513;233;1.48620605468749E-05;10 mA;
792.596394998886;0.41802978515625;46.5999998823463;234;1.53198242187499E-05;10 mA;
792.796394998382;0.4188232421875;46.7999998818414;235;1.568603515625E-05;10 mA;
792.996394997877;0.419586181640625;46.9999998813364;236;1.6815185546875E-05;10 mA;
793.196394997372;0.420379638671875;47.1999998808315;237;1.36413574218749E-05;10 mA;
793.396394996867;0.421173095703125;47.3999998803265;238;1.70288085937501E-05;10 mA;
793.596394996362;0.42193603515625;47.5999998798216;239;1.51977539062501E-05;10 mA;
793.796394995857;0.422698974609375;47.7999998793166;240;1.495361328125E-05;10 mA;
793.996394995352;0.42352294921875;47.9999998788116;241;1.56555175781251E-05;10 mA;
794.196394994847;0.424285888671875;48.1999998783067;242;1.544189453125E-05;10 mA;
794.396394994342;0.425079345703125;48.3999998778017;243;1.68762207031251E-05;10 mA;
794.596394993837;0.4259033203125;48.5999998772968;244;1.7059326171875E-05;10 mA;
794.796394993332;0.42669677734375;48.7999998767918;245;1.6143798828125E-05;10 mA;
794.996394992827;0.427490234375;48.9999998762869;246;1.495361328125E-05;10 mA;
795.196394992322;0.42828369140625;49.1999998757819;247;1.361083984375E-05;10 mA;
795.396394991817;0.4290771484375;49.399999875277;248;1.56555175781251E-05;10 mA;
795.596394991312;0.429901123046875;49.599999874772;249;1.69677734375E-05;10 mA;
795.796394990807;0.430694580078125;49.7999998742671;250;1.62658691406251E-05;10 mA;
795.996394990302;0.4315185546875;49.9999998737621;251;1.5899658203125E-05;10 mA;
796.196394989797;0.43231201171875;50.1999998732572;252;1.55029296875001E-05;10 mA;
796.396394989292;0.43310546875;50.3999998727522;253;1.666259765625E-05;10 mA;
796.596394988787;0.433929443359375;50.5999998722473;254;1.47399902343751E-05;10 mA;
796.796394988282;0.43475341796875;50.7999998717423;255;1.35192871093751E-05;10 mA;
796.996394987778;0.435546875;50.9999998712374;256;1.68762207031251E-05;10 mA;
797.196394987273;0.4364013671875;51.1999998707324;257;1.45568847656249E-05;10 mA;
797.396394986768;0.43719482421875;51.3999998702275;258;1.68457031249999E-05;10 mA;
797.596394986263;0.438018798828125;51.5999998697225;259;1.5289306640625E-05;10 mA;
797.796394985758;0.438812255859375;51.7999998692176;260;1.58081054687501E-05;10 mA;
797.996394985253;0.43963623046875;51.9999998687126;261;1.46484375E-05;10 mA;
798.196394984748;0.4404296875;52.1999998682077;262;1.5533447265625E-05;10 mA;
798.396394984243;0.441253662109375;52.3999998677027;263;1.45874023437501E-05;10 mA;
798.596394983738;0.442047119140625;52.5999998671978;264;1.56249999999999E-05;10 mA;
798.796394983233;0.44287109375;52.7999998666928;265;1.495361328125E-05;10 mA;
798.996394982728;0.44366455078125;52.9999998661879;266;1.6357421875E-05;10 mA;
799.196394982223;0.444488525390625;53.1999998656829;267;1.34887695312499E-05;10 mA;
799.396394981718;0.445281982421875;53.399999865178;268;1.5289306640625E-05;10 mA;
799.596394981213;0.44610595703125;53.599999864673;269;1.68457031249999E-05;10 mA;
799.796394980708;0.446929931640625;53.7999998641681;270;1.4007568359375E-05;10 mA;
799.996394980203;0.447723388671875;53.9999998636631;271;1.63879394531249E-05;10 mA;
800.196394979698;0.44854736328125;54.1999998631582;272;1.41296386718751E-05;10 mA;
800.396394979193;0.449371337890625;54.3999998626532;273;1.6815185546875E-05;10 mA;
800.596394978688;0.4501953125;54.5999998621483;274;1.68762207031251E-05;10 mA;
800.796394978183;0.45098876953125;54.7999998616433;275;1.6448974609375E-05;10 mA;
800.996394977679;0.4517822265625;54.9999998611383;276;1.36718750000001E-05;10 mA;
801.196394977174;0.452606201171875;55.1999998606334;277;1.446533203125E-05;10 mA;
801.396394976669;0.45343017578125;55.3999998601284;278;1.53198242187499E-05;10 mA;
801.596394976164;0.454254150390625;55.5999998596235;279;1.66015625E-05;10 mA;
801.796394975659;0.455078125;55.7999998591185;280;1.5380859375E-05;10 mA;
801.996394975154;0.45587158203125;55.9999998586136;281;1.42822265625001E-05;10 mA;
802.196394974649;0.456695556640625;56.1999998581086;282;1.4801025390625E-05;10 mA;
802.396394974144;0.457489013671875;56.3999998576037;283;1.446533203125E-05;10 mA;
802.596394973639;0.45831298828125;56.5999998570987;284;1.69982910156249E-05;10 mA;
802.796394973134;0.459136962890625;56.7999998565938;285;1.544189453125E-05;10 mA;
802.996394972629;0.4599609375;56.9999998560888;286;1.7120361328125E-05;10 mA;
803.196394972124;0.460784912109375;57.1999998555839;287;1.42517089843749E-05;10 mA;
803.396394971619;0.46160888671875;57.3999998550789;288;1.64794921875E-05;10 mA;
803.596394971114;0.462432861328125;57.599999854574;289;1.385498046875E-05;10 mA;
803.796394970609;0.4632568359375;57.799999854069;290;1.39465332031249E-05;10 mA;
803.996394970104;0.464080810546875;57.9999998535641;291;1.51672363281249E-05;10 mA;
804.196394969599;0.464935302734375;58.1999998530591;292;1.27563476562501E-05;10 mA;
804.396394969094;0.465789794921875;58.3999998525542;293;1.48925781250001E-05;10 mA;
804.596394968589;0.466644287109375;58.5999998520492;294;1.3427734375E-05;10 mA;
804.796394968084;0.46746826171875;58.7999998515443;295;1.5228271484375E-05;10 mA;
804.996394967579;0.46832275390625;58.9999998510393;296;1.50451660156251E-05;10 mA;
805.196394967075;0.46917724609375;59.1999998505344;297;1.4801025390625E-05;10 mA;
805.39639496657;0.47003173828125;59.3999998500294;298;1.55029296875001E-05;10 mA;
805.596394966065;0.470855712890625;59.5999998495245;299;1.37939453124999E-05;10 mA;
805.79639496556;0.4716796875;59.7999998490195;300;1.4007568359375E-05;10 mA;
805.996394965055;0.4725341796875;59.9999998485146;301;1.64184570312501E-05;10 mA;
806.19639496455;0.473358154296875;60.1999998480096;302;1.708984375E-05;10 mA;
806.396394964045;0.474212646484375;60.3999998475047;303;1.34887695312499E-05;10 mA;
806.59639496354;0.475067138671875;60.5999998469997;304;1.40991210937499E-05;10 mA;
806.796394963035;0.475921630859375;60.7999998464948;305;1.666259765625E-05;10 mA;
806.99639496253;0.476776123046875;60.9999998459898;306;1.6326904296875E-05;10 mA;
807.196394962025;0.477630615234375;61.1999998454849;307;1.35192871093751E-05;10 mA;
807.39639496152;0.47845458984375;61.3999998449799;308;1.4801025390625E-05;10 mA;
807.596394961015;0.479278564453125;61.599999844475;309;1.61132812500001E-05;10 mA;
807.79639496051;0.480133056640625;61.79999984397;310;1.64184570312501E-05;10 mA;
807.996394960005;0.480987548828125;61.999999843465;311;1.495361328125E-05;10 mA;
808.1963949595;0.481842041015625;62.1999998429601;312;1.4984130859375E-05;10 mA;
808.396394958995;0.482696533203125;62.3999998424551;313;1.57775878906249E-05;10 mA;
808.59639495849;0.483551025390625;62.5999998419502;314;1.483154296875E-05;10 mA;
808.796394957985;0.484405517578125;62.7999998414452;315;1.42822265625001E-05;10 mA;
808.99639495748;0.485260009765625;62.9999998409403;316;1.51977539062501E-05;10 mA;
809.196394956975;0.486083984375;63.1999998404353;317;1.690673828125E-05;10 mA;
809.396394956471;0.4869384765625;63.3999998399304;318;1.42517089843749E-05;10 mA;
809.596394955966;0.48779296875;63.5999998394254;319;1.56249999999999E-05;10 mA;
809.796394955461;0.4886474609375;63.7999998389205;320;1.483154296875E-05;10 mA;
809.996394954956;0.489471435546875;63.9999998384155;321;1.495361328125E-05;10 mA;
810.196394954451;0.490325927734375;64.1999998379106;322;1.483154296875E-05;10 mA;
810.396394953946;0.491180419921875;64.3999998374056;323;1.52587890625E-05;10 mA;
810.596394953441;0.49200439453125;64.5999998369007;324;1.51672363281249E-05;10 mA;
810.796394952936;0.49285888671875;64.7999998363957;325;1.62353515624999E-05;10 mA;
810.996394952431;0.49371337890625;64.9999998358908;326;1.6143798828125E-05;10 mA;
811.196394951926;0.49456787109375;65.1999998353858;327;1.513671875E-05;10 mA;
811.396394951421;0.495452880859375;65.3999998348809;328;1.446533203125E-05;10 mA;
811.596394950916;0.496307373046875;65.5999998343759;329;1.6632080078125E-05;10 mA;
811.796394950411;0.49713134765625;65.799999833871;330;1.4923095703125E-05;10 mA;
811.996394949906;0.4979248046875;65.999999833366;331;1.385498046875E-05;10 mA;
812.196394949401;0.498779296875;66.1999998328611;332;1.31835937499999E-05;10 mA;
812.396394948896;0.499603271484375;66.3999998323561;333;1.68457031249999E-05;10 mA;
812.596394948391;0.50018310546875;66.5999998318512;334;1.65405273437499E-05;10 mA;
812.796394947886;0.5010986328125;66.7999998313462;335;1.44042968749999E-05;10 mA;
812.996394947381;0.50201416015625;66.9999998308413;336;1.6204833984375E-05;10 mA;
813.196394946876;0.50262451171875;67.1999998303363;337;1.6632080078125E-05;10 mA;
813.396394946372;0.5035400390625;67.3999998298314;338;1.57470703125E-05;10 mA;
813.596394945867;0.50445556640625;67.5999998293264;339;1.3153076171875E-05;10 mA;
813.796394945362;0.50537109375;67.7999998288215;340;1.61132812500001E-05;10 mA;
813.996394944857;0.5059814453125;67.9999998283165;341;1.4678955078125E-05;10 mA;
814.196394944352;0.50689697265625;68.1999998278116;342;1.64184570312501E-05;10 mA;
814.396394943847;0.5078125;68.3999998273066;343;1.678466796875E-05;10 mA;
814.596394943342;0.50872802734375;68.5999998268016;344;1.48620605468749E-05;10 mA;
814.796394942837;0.50933837890625;68.7999998262967;345;1.62658691406251E-05;10 mA;
814.996394942332;0.51025390625;68.9999998257917;346;1.7120361328125E-05;10 mA;
815.196394941827;0.51116943359375;69.1999998252868;347;1.5838623046875E-05;10 mA;
815.396394941322;0.5120849609375;69.3999998247818;348;1.373291015625E-05;10 mA;
815.596394940817;0.51300048828125;69.5999998242769;349;1.57775878906249E-05;10 mA;
815.796394940312;0.51361083984375;69.7999998237719;350;1.3275146484375E-05;10 mA;
815.996394939807;0.5145263671875;69.999999823267;351;1.50451660156251E-05;10 mA;
816.196394939302;0.51544189453125;70.199999822762;352;1.53503417968751E-05;10 mA;
816.396394938797;0.516357421875;70.3999998222571;353;1.66931152343749E-05;10 mA;
816.596394938292;0.51727294921875;70.5999998217521;354;1.6815185546875E-05;10 mA;
816.796394937787;0.5181884765625;70.7999998212472;355;1.68457031249999E-05;10 mA;
816.996394937282;0.518798828125;70.9999998207422;356;1.68762207031251E-05;10 mA;
817.196394936777;0.51971435546875;71.1999998202373;357;1.45874023437501E-05;10 mA;
817.396394936272;0.5206298828125;71.3999998197323;358;1.33666992187501E-05;10 mA;
817.596394935768;0.52154541015625;71.5999998192274;359;1.6143798828125E-05;10 mA;
817.796394935263;0.52215576171875;71.7999998187224;360;1.7059326171875E-05;10 mA;
817.996394934758;0.5230712890625;71.9999998182175;361;1.6937255859375E-05;10 mA;
818.196394934253;0.52398681640625;72.1999998177125;362;1.507568359375E-05;10 mA;
818.396394933748;0.52490234375;72.3999998172076;363;1.47094726562499E-05;10 mA;
818.596394933243;0.5255126953125;72.5999998167026;364;1.56555175781251E-05;10 mA;
818.796394932738;0.52642822265625;72.7999998161977;365;1.5106201171875E-05;10 mA;
818.996394932233;0.52734375;72.9999998156927;366;1.38244628906251E-05;10 mA;
819.196394931728;0.52825927734375;73.1999998151878;367;1.5533447265625E-05;10 mA;
819.396394931223;0.52886962890625;73.3999998146828;368;1.59301757812499E-05;10 mA;
819.596394930718;0.52978515625;73.5999998141779;369;1.4190673828125E-05;10 mA;
819.796394930213;0.53070068359375;73.7999998136729;370;1.544189453125E-05;10 mA;
819.996394929708;0.53131103515625;73.999999813168;371;1.446533203125E-05;10 mA;
820.196394929203;0.5322265625;74.199999812663;372;1.33666992187501E-05;10 mA;
820.396394928698;0.53314208984375;74.3999998121581;373;1.5228271484375E-05;10 mA;
820.596394928193;0.53375244140625;74.5999998116531;374;1.35192871093751E-05;10 mA;
820.796394927688;0.53466796875;74.7999998111482;375;1.59606933593751E-05;10 mA;
820.996394927183;0.53558349609375;74.9999998106432;376;1.71508789062499E-05;10 mA;
821.196394926678;0.53619384765625;75.1999998101383;377;1.6326904296875E-05;10 mA;
821.396394926173;0.537109375;75.3999998096333;378;1.69677734375E-05;10 mA;
821.596394925669;0.53802490234375;75.5999998091283;379;1.4495849609375E-05;10 mA;
821.796394925164;0.53863525390625;75.7999998086234;380;1.53198242187499E-05;10 mA;
821.996394924659;0.53955078125;75.9999998081184;381;1.4678955078125E-05;10 mA;
822.196394924154;0.54046630859375;76.1999998076135;382;1.6357421875E-05;10 mA;
822.396394923649;0.54107666015625;76.3999998071085;383;1.3916015625E-05;10 mA;
822.596394923144;0.5419921875;76.5999998066036;384;1.68457031249999E-05;10 mA;
822.796394922639;0.54290771484375;76.7999998060986;385;1.5533447265625E-05;10 mA;
822.996394922134;0.54351806640625;76.9999998055937;386;1.62658691406251E-05;10 mA;
823.196394921629;0.54443359375;77.1999998050887;387;1.6754150390625E-05;10 mA;
823.396394921124;0.54534912109375;77.3999998045838;388;1.68762207031251E-05;10 mA;
823.596394920619;0.5462646484375;77.5999998040788;389;1.68457031249999E-05;10 mA;
823.796394920114;0.546875;77.7999998035739;390;1.67236328125001E-05;10 mA;
823.996394919609;0.54779052734375;77.9999998030689;391;1.74865722656251E-05;10 mA;
824.196394919104;0.5487060546875;78.199999802564;392;1.4678955078125E-05;10 mA;
824.396394918599;0.54931640625;78.399999802059;393;1.51977539062501E-05;10 mA;
824.596394918094;0.55023193359375;78.5999998015541;394;1.7242431640625E-05;10 mA;
824.796394917589;0.5511474609375;78.7999998010491;395;1.5380859375E-05;10 mA;
824.996394917084;0.55206298828125;78.9999998005442;396;1.68762207031251E-05;10 mA;
825.196394916579;0.55267333984375;79.1999998000392;397;1.72119140625E-05;10 mA;
825.396394916074;0.5535888671875;79.3999997995343;398;1.6143798828125E-05;10 mA;
825.596394915569;0.55450439453125;79.5999997990293;399;1.62353515624999E-05;10 mA;
825.796394915065;0.55511474609375;79.7999997985244;400;1.82495117187501E-05;10 mA;
825.99639491456;0.5560302734375;79.9999997980194;401;1.73034667968749E-05;10 mA;
826.196394914055;0.55694580078125;80.1999997975145;402;1.57470703125E-05;10 mA;
826.39639491355;0.55755615234375;80.3999997970095;403;1.88598632812501E-05;10 mA;
826.596394913045;0.5584716796875;80.5999997965046;404;1.28784179687499E-05;10 mA;
826.79639491254;0.55938720703125;80.7999997959996;405;1.83715820312499E-05;10 mA;
826.996394912035;0.55999755859375;80.9999997954947;406;1.51977539062501E-05;10 mA;
827.19639491153;0.5609130859375;81.1999997949897;407;1.5106201171875E-05;10 mA;
827.396394911025;0.56182861328125;81.3999997944848;408;1.324462890625E-05;10 mA;
827.59639491052;0.56243896484375;81.5999997939798;409;1.629638671875E-05;10 mA;
827.796394910015;0.5633544921875;81.7999997934749;410;1.3092041015625E-05;10 mA;
827.99639490951;0.56427001953125;81.9999997929699;411;1.47705078125E-05;10 mA;
828.196394909005;0.565185546875;82.199999792465;412;1.59912109375E-05;10 mA;
828.3963949085;0.5657958984375;82.39999979196;413;1.666259765625E-05;10 mA;
828.596394907995;0.56671142578125;82.599999791455;414;1.3153076171875E-05;10 mA;
828.79639490749;0.56732177734375;82.7999997909501;415;1.617431640625E-05;10 mA;
828.996394906985;0.5682373046875;82.9999997904451;416;1.434326171875E-05;10 mA;
829.19639490648;0.56915283203125;83.1999997899402;417;1.40380859375E-05;10 mA;
829.396394905975;0.56976318359375;83.3999997894352;418;1.53503417968751E-05;10 mA;
829.59639490547;0.5706787109375;83.5999997889303;419;1.42822265625001E-05;10 mA;
829.796394904965;0.57159423828125;83.7999997884253;420;1.47705078125E-05;10 mA;
829.996394904461;0.57220458984375;83.9999997879204;421;1.54724121093749E-05;10 mA;
830.196394903956;0.5731201171875;84.1999997874154;422;1.544189453125E-05;10 mA;
830.396394903451;0.57403564453125;84.3999997869105;423;1.5533447265625E-05;10 mA;
830.596394902946;0.57464599609375;84.5999997864055;424;1.434326171875E-05;10 mA;
830.796394902441;0.5755615234375;84.7999997859006;425;1.5228271484375E-05;10 mA;
830.996394901936;0.57647705078125;84.9999997853956;426;1.61132812500001E-05;10 mA;
831.196394901431;0.57708740234375;85.1999997848907;427;1.6510009765625E-05;10 mA;
831.396394900926;0.5780029296875;85.3999997843857;428;1.617431640625E-05;10 mA;
831.596394900421;0.57891845703125;85.5999997838808;429;1.57775878906249E-05;10 mA;
831.796394899916;0.57952880859375;85.7999997833758;430;1.312255859375E-05;10 mA;
831.996394899411;0.5804443359375;85.9999997828709;431;1.5899658203125E-05;10 mA;
832.196394898906;0.58135986328125;86.1999997823659;432;1.4312744140625E-05;10 mA;
832.396394898401;0.58197021484375;86.399999781861;433;1.33056640625E-05;10 mA;
832.596394897896;0.5828857421875;86.599999781356;434;1.4617919921875E-05;10 mA;
832.796394897391;0.58349609375;86.7999997808511;435;1.74560546874999E-05;10 mA;
832.996394896886;0.58441162109375;86.9999997803461;436;1.23291015625E-05;10 mA;
833.196394896381;0.5853271484375;87.1999997798412;437;1.50451660156251E-05;10 mA;
833.396394895876;0.5859375;87.3999997793362;438;1.48925781250001E-05;10 mA;
833.596394895371;0.58685302734375;87.5999997788313;439;1.7242431640625E-05;10 mA;
833.796394894866;0.5877685546875;87.7999997783263;440;1.5380859375E-05;10 mA;
833.996394894362;0.58837890625;87.9999997778214;441;1.3275146484375E-05;10 mA;
834.196394893857;0.58929443359375;88.1999997773164;442;1.76086425781249E-05;10 mA;
834.396394893352;0.58990478515625;88.3999997768115;443;1.6357421875E-05;10 mA;
834.596394892847;0.5908203125;88.5999997763065;444;1.5533447265625E-05;10 mA;
834.796394892342;0.5914306640625;88.7999997758016;445;1.30615234375001E-05;10 mA;
834.996394891837;0.59234619140625;88.9999997752966;446;1.6448974609375E-05;10 mA;
835.196394891332;0.59295654296875;89.1999997747916;447;1.7059326171875E-05;10 mA;
835.396394890827;0.5938720703125;89.3999997742867;448;1.605224609375E-05;10 mA;
835.596394890322;0.594482421875;89.5999997737817;449;1.373291015625E-05;10 mA;
835.796394889817;0.59539794921875;89.7999997732768;450;1.50146484374999E-05;10 mA;
835.996394889312;0.5963134765625;89.9999997727718;451;1.65710449218751E-05;10 mA;
836.196394888807;0.596923828125;90.1999997722669;452;1.42822265625001E-05;10 mA;
836.396394888302;0.59783935546875;90.3999997717619;453;1.678466796875E-05;10 mA;
836.596394887797;0.59844970703125;90.599999771257;454;1.5228271484375E-05;10 mA;
836.796394887292;0.599365234375;90.799999770752;455;1.65710449218751E-05;10 mA;
836.996394886787;0.5999755859375;90.9999997702471;456;1.47705078125E-05;10 mA;
837.196394886282;0.60089111328125;91.1999997697421;457;1.7547607421875E-05;10 mA;
837.396394885777;0.60150146484375;91.3999997692372;458;1.70288085937501E-05;10 mA;
837.596394885272;0.6024169921875;91.5999997687322;459;1.4312744140625E-05;10 mA;
837.796394884767;0.60302734375;91.7999997682273;460;1.35498046875E-05;10 mA;
837.996394884262;0.60394287109375;91.9999997677223;461;1.5594482421875E-05;10 mA;
838.196394883758;0.60455322265625;92.1999997672174;462;1.33666992187501E-05;10 mA;
838.396394883253;0.60546875;92.3999997667124;463;1.64184570312501E-05;10 mA;
838.596394882748;0.6060791015625;92.5999997662075;464;1.3580322265625E-05;10 mA;
838.796394882243;0.60699462890625;92.7999997657025;465;1.62658691406251E-05;10 mA;
838.996394881738;0.60760498046875;92.9999997651976;466;1.513671875E-05;10 mA;
839.196394881233;0.6085205078125;93.1999997646926;467;1.6021728515625E-05;10 mA;
839.396394880728;0.60943603515625;93.3999997641877;468;1.69677734375E-05;10 mA;
839.596394880223;0.61004638671875;93.5999997636827;469;1.507568359375E-05;10 mA;
839.796394879718;0.6109619140625;93.7999997631778;470;1.690673828125E-05;10 mA;
839.996394879213;0.611572265625;93.9999997626728;471;1.38244628906251E-05;10 mA;
840.196394878708;0.61248779296875;94.1999997621679;472;1.4617919921875E-05;10 mA;
840.396394878203;0.61309814453125;94.3999997616629;473;1.507568359375E-05;10 mA;
840.596394877698;0.614013671875;94.599999761158;474;1.39465332031249E-05;10 mA;
840.796394877193;0.6146240234375;94.799999760653;475;1.5594482421875E-05;10 mA;
840.996394876688;0.61553955078125;94.9999997601481;476;1.70288085937501E-05;10 mA;
841.196394876183;0.61614990234375;95.1999997596431;477;1.71508789062499E-05;10 mA;
841.396394875678;0.6170654296875;95.3999997591382;478;1.446533203125E-05;10 mA;
841.596394875173;0.61767578125;95.5999997586332;479;1.69677734375E-05;10 mA;
841.796394874668;0.6182861328125;95.7999997581283;480;1.5533447265625E-05;10 mA;
841.996394874163;0.61920166015625;95.9999997576233;481;1.5228271484375E-05;10 mA;
842.196394873659;0.61981201171875;96.1999997571183;482;1.52587890625E-05;10 mA;
842.396394873154;0.6207275390625;96.3999997566134;483;1.6937255859375E-05;10 mA;
842.596394872649;0.621337890625;96.5999997561084;484;1.56555175781251E-05;10 mA;
842.796394872144;0.62225341796875;96.7999997556035;485;1.55029296875001E-05;10 mA;
842.996394871639;0.62286376953125;96.9999997550985;486;1.53198242187499E-05;10 mA;
843.196394871134;0.623779296875;97.1999997545936;487;1.63879394531249E-05;10 mA;
843.396394870629;0.6243896484375;97.3999997540886;488;1.42822265625001E-05;10 mA;
843.596394870124;0.62530517578125;97.5999997535837;489;1.385498046875E-05;10 mA;
843.796394869619;0.62591552734375;97.7999997530787;490;1.727294921875E-05;10 mA;
843.996394869114;0.6268310546875;97.9999997525738;491;1.63879394531249E-05;10 mA;
844.196394868609;0.62744140625;98.1999997520688;492;1.45874023437501E-05;10 mA;
844.396394868104;0.62835693359375;98.3999997515639;493;1.59912109375E-05;10 mA;
844.596394867599;0.62896728515625;98.5999997510589;494;1.4312744140625E-05;10 mA;
844.796394867094;0.6298828125;98.799999750554;495;1.45874023437501E-05;10 mA;
844.996394866589;0.6304931640625;98.999999750049;496;1.3702392578125E-05;10 mA;
845.196394866084;0.631103515625;99.1999997495441;497;1.5533447265625E-05;10 mA;
845.396394865579;0.63201904296875;99.3999997490391;498;1.57470703125E-05;10 mA;
845.596394865074;0.63262939453125;99.5999997485342;499;1.7120361328125E-05;10 mA;
845.796394864569;0.633544921875;99.7999997480292;500;1.5106201171875E-05;10 mA;
845.996394864064;0.6341552734375;99.9999997475243;501;1.6021728515625E-05;10 mA;
846.196394863559;0.63507080078125;100.199999747019;502;1.5411376953125E-05;10 mA;
846.396394863055;0.63568115234375;100.399999746514;503;1.69677734375E-05;10 mA;
846.59639486255;0.63629150390625;100.599999746009;504;1.513671875E-05;10 mA;
846.796394862045;0.63720703125;100.799999745504;505;1.69677734375E-05;10 mA;
846.99639486154;0.6378173828125;100.999999745;506;1.617431640625E-05;10 mA;
847.196394861035;0.63873291015625;101.199999744495;507;1.3885498046875E-05;10 mA;
847.39639486053;0.63934326171875;101.39999974399;508;1.5380859375E-05;10 mA;
847.596394860025;0.63995361328125;101.599999743485;509;1.69982910156249E-05;10 mA;
847.79639485952;0.640869140625;101.79999974298;510;1.48925781250001E-05;10 mA;
847.996394859015;0.6414794921875;101.999999742475;511;1.39465332031249E-05;10 mA;
848.19639485851;0.64239501953125;102.19999974197;512;1.4984130859375E-05;10 mA;
848.396394858005;0.64300537109375;102.399999741465;513;1.53198242187499E-05;10 mA;
848.5963948575;0.6439208984375;102.59999974096;514;1.66931152343749E-05;10 mA;
848.796394856995;0.64453125;102.799999740455;515;1.4495849609375E-05;10 mA;
848.99639485649;0.6451416015625;102.99999973995;516;1.45874023437501E-05;10 mA;
849.196394855985;0.64605712890625;103.199999739445;517;1.48620605468749E-05;10 mA;
849.39639485548;0.64666748046875;103.39999973894;518;1.68762207031251E-05;10 mA;
849.596394854975;0.6475830078125;103.599999738435;519;1.6357421875E-05;10 mA;
849.79639485447;0.648193359375;103.79999973793;520;1.7242431640625E-05;10 mA;
849.996394853965;0.6488037109375;103.999999737425;521;1.44348144531251E-05;10 mA;
850.19639485346;0.64971923828125;104.19999973692;522;1.416015625E-05;10 mA;
850.396394852955;0.65032958984375;104.399999736415;523;1.422119140625E-05;10 mA;
850.596394852451;0.6512451171875;104.59999973591;524;1.69677734375E-05;10 mA;
850.796394851946;0.65185546875;104.799999735405;525;1.57775878906249E-05;10 mA;
850.996394851441;0.6524658203125;104.9999997349;526;1.5289306640625E-05;10 mA;
851.196394850936;0.65338134765625;105.199999734396;527;1.69677734375E-05;10 mA;
851.396394850431;0.65399169921875;105.399999733891;528;1.64184570312501E-05;10 mA;
851.596394849926;0.6549072265625;105.599999733386;529;1.66015625E-05;10 mA;
851.796394849421;0.655517578125;105.799999732881;530;1.47705078125E-05;10 mA;
851.996394848916;0.6561279296875;105.999999732376;531;1.70288085937501E-05;10 mA;
852.196394848411;0.65704345703125;106.199999731871;532;1.483154296875E-05;10 mA;
852.396394847906;0.65765380859375;106.399999731366;533;1.5533447265625E-05;10 mA;
852.596394847401;0.65826416015625;106.599999730861;534;1.3885498046875E-05;10 mA;
852.796394846896;0.65887451171875;106.799999730356;535;1.53503417968751E-05;10 mA;
852.996394846391;0.6597900390625;106.999999729851;536;1.62353515624999E-05;10 mA;
853.196394845886;0.660400390625;107.199999729346;537;1.6754150390625E-05;10 mA;
853.396394845381;0.6610107421875;107.399999728841;538;1.42822265625001E-05;10 mA;
853.596394844876;0.66192626953125;107.599999728336;539;1.416015625E-05;10 mA;
853.796394844371;0.66253662109375;107.799999727831;540;1.52587890625E-05;10 mA;
853.996394843866;0.66314697265625;107.999999727326;541;1.5380859375E-05;10 mA;
854.196394843361;0.6640625;108.199999726821;542;1.5869140625E-05;10 mA;
854.396394842856;0.6646728515625;108.399999726316;543;1.51977539062501E-05;10 mA;
854.596394842352;0.665283203125;108.599999725811;544;1.6754150390625E-05;10 mA;
854.796394841847;0.6658935546875;108.799999725306;545;1.3763427734375E-05;10 mA;
854.996394841342;0.66680908203125;108.999999724801;546;1.751708984375E-05;10 mA;
855.196394840837;0.66741943359375;109.199999724297;547;1.434326171875E-05;10 mA;
855.396394840332;0.66802978515625;109.399999723792;548;1.3580322265625E-05;10 mA;
855.596394839827;0.66864013671875;109.599999723287;549;1.66015625E-05;10 mA;
855.796394839322;0.66925048828125;109.799999722782;550;1.5716552734375E-05;10 mA;
855.996394838817;0.66986083984375;109.999999722277;551;1.446533203125E-05;10 mA;
856.196394838312;0.6707763671875;110.199999721772;552;1.4678955078125E-05;10 mA;
856.396394837807;0.67138671875;110.399999721267;553;1.6448974609375E-05;10 mA;
856.596394837302;0.6719970703125;110.599999720762;554;1.385498046875E-05;10 mA;
856.796394836797;0.672607421875;110.799999720257;555;1.38244628906251E-05;10 mA;
856.996394836292;0.6732177734375;110.999999719752;556;1.35498046875E-05;10 mA;
857.196394835787;0.67413330078125;111.199999719247;557;1.64184570312501E-05;10 mA;
857.396394835282;0.67474365234375;111.399999718742;558;1.42517089843749E-05;10 mA;
857.596394834777;0.67535400390625;111.599999718237;559;1.5838623046875E-05;10 mA;
857.796394834272;0.67596435546875;111.799999717732;560;1.65405273437499E-05;10 mA;
857.996394833767;0.6768798828125;111.999999717227;561;1.3885498046875E-05;10 mA;
858.196394833262;0.677490234375;112.199999716722;562;1.6021728515625E-05;10 mA;
858.396394832757;0.6781005859375;112.399999716217;563;1.47094726562499E-05;10 mA;
858.596394832252;0.6787109375;112.599999715712;564;1.7059326171875E-05;10 mA;
858.796394831748;0.6793212890625;112.799999715207;565;1.507568359375E-05;10 mA;
858.996394831243;0.68023681640625;112.999999714702;566;1.5899658203125E-05;10 mA;
859.196394830738;0.68084716796875;113.199999714197;567;1.556396484375E-05;10 mA;
859.396394830233;0.68145751953125;113.399999713693;568;1.39770507812501E-05;10 mA;
859.596394829728;0.68206787109375;113.599999713188;569;1.4007568359375E-05;10 mA;
859.796394829223;0.6829833984375;113.799999712683;570;1.385498046875E-05;10 mA;
859.996394828718;0.68359375;113.999999712178;571;1.5899658203125E-05;10 mA;
860.196394828213;0.6842041015625;114.199999711673;572;1.5594482421875E-05;10 mA;
860.396394827708;0.684814453125;114.399999711168;573;1.6448974609375E-05;10 mA;
860.596394827203;0.6854248046875;114.599999710663;574;1.57775878906249E-05;10 mA;
860.796394826698;0.68603515625;114.799999710158;575;1.6937255859375E-05;10 mA;
860.996394826193;0.6866455078125;114.999999709653;576;1.47094726562499E-05;10 mA;
861.196394825688;0.68756103515625;115.199999709148;577;1.47094726562499E-05;10 mA;
861.396394825183;0.68817138671875;115.399999708643;578;1.40380859375E-05;10 mA;
861.596394824678;0.68878173828125;115.599999708138;579;1.63879394531249E-05;10 mA;
861.796394824173;0.68939208984375;115.799999707633;580;1.373291015625E-05;10 mA;
861.996394823668;0.69000244140625;115.999999707128;581;1.6937255859375E-05;10 mA;
862.196394823163;0.69061279296875;116.199999706623;582;1.544189453125E-05;10 mA;
862.396394822658;0.69122314453125;116.399999706118;583;1.47399902343751E-05;10 mA;
862.596394822153;0.69183349609375;116.599999705613;584;1.69677734375E-05;10 mA;
862.796394821649;0.69244384765625;116.799999705108;585;1.53503417968751E-05;10 mA;
862.996394821144;0.69305419921875;116.999999704603;586;1.5289306640625E-05;10 mA;
863.196394820639;0.69366455078125;117.199999704098;587;1.422119140625E-05;10 mA;
863.396394820134;0.69427490234375;117.399999703593;588;1.6448974609375E-05;10 mA;
863.596394819629;0.69488525390625;117.599999703089;589;1.35498046875E-05;10 mA;
863.796394819124;0.69549560546875;117.799999702584;590;1.40991210937499E-05;10 mA;
863.996394818619;0.69610595703125;117.999999702079;591;1.4190673828125E-05;10 mA;
864.196394818114;0.697021484375;118.199999701574;592;1.40991210937499E-05;10 mA;
864.396394817609;0.6976318359375;118.399999701069;593;1.63879394531249E-05;10 mA;
864.596394817104;0.6982421875;118.599999700564;594;1.5380859375E-05;10 mA;
864.796394816599;0.6988525390625;118.799999700059;595;1.37939453124999E-05;10 mA;
864.996394816094;0.699462890625;118.999999699554;596;1.44348144531251E-05;10 mA;
865.196394815589;0.7000732421875;119.199999699049;597;1.57470703125E-05;10 mA;
865.396394815084;0.70068359375;119.399999698544;598;1.44348144531251E-05;10 mA;
865.596394814579;0.7012939453125;119.599999698039;599;1.57775878906249E-05;10 mA;
865.796394814074;0.701904296875;119.799999697534;600;1.37939453124999E-05;10 mA;
865.996394813569;0.7025146484375;119.999999697029;601;1.35192871093751E-05;10 mA;
866.196394813064;0.703125;120.199999696524;602;1.7059326171875E-05;10 mA;
866.396394812559;0.7037353515625;120.399999696019;603;1.72119140625E-05;10 mA;
866.596394812054;0.704345703125;120.599999695514;604;1.5869140625E-05;10 mA;
866.796394811549;0.7049560546875;120.799999695009;605;1.5106201171875E-05;10 mA;
866.996394811045;0.70587158203125;120.999999694504;606;1.48620605468749E-05;10 mA;
867.19639481054;0.70648193359375;121.199999693999;607;1.62658691406251E-05;10 mA;
867.396394810035;0.70709228515625;121.399999693494;608;1.70288085937501E-05;10 mA;
867.59639480953;0.70770263671875;121.59999969299;609;1.4678955078125E-05;10 mA;
867.796394809025;0.70831298828125;121.799999692485;610;1.71508789062499E-05;10 mA;
867.99639480852;0.70892333984375;121.99999969198;611;1.513671875E-05;10 mA;
868.196394808015;0.70953369140625;122.199999691475;612;1.4190673828125E-05;10 mA;
868.39639480751;0.71014404296875;122.39999969097;613;1.38244628906251E-05;10 mA;
868.596394807005;0.71075439453125;122.599999690465;614;1.483154296875E-05;10 mA;
868.7963948065;0.71136474609375;122.79999968996;615;1.47705078125E-05;10 mA;
868.996394805995;0.7122802734375;122.999999689455;616;1.44348144531251E-05;10 mA;
869.19639480549;0.71258544921875;123.19999968895;617;1.4068603515625E-05;10 mA;
869.396394804985;0.7135009765625;123.399999688445;618;1.4190673828125E-05;10 mA;
869.59639480448;0.714111328125;123.59999968794;619;1.6510009765625E-05;10 mA;
869.796394803975;0.7147216796875;123.799999687435;620;1.4007568359375E-05;10 mA;
869.99639480347;0.71533203125;123.99999968693;621;1.38244628906251E-05;10 mA;
870.196394802965;0.7159423828125;124.199999686425;622;1.46484375E-05;10 mA;
870.39639480246;0.716552734375;124.39999968592;623;1.56249999999999E-05;10 mA;
870.596394801955;0.7171630859375;124.599999685415;624;1.7364501953125E-05;10 mA;
870.79639480145;0.7177734375;124.79999968491;625;1.6510009765625E-05;10 mA;
870.996394800945;0.7183837890625;124.999999684405;626;1.46484375E-05;10 mA;
871.196394800441;0.718994140625;125.1999996839;627;1.48925781250001E-05;10 mA;
871.396394799936;0.7196044921875;125.399999683395;628;1.605224609375E-05;10 mA;
871.596394799431;0.72021484375;125.59999968289;629;1.57775878906249E-05;10 mA;
871.796394798926;0.7208251953125;125.799999682386;630;1.73339843750001E-05;10 mA;
871.996394798421;0.721435546875;125.999999681881;631;1.6143798828125E-05;10 mA;
872.196394797916;0.7220458984375;126.199999681376;632;1.62658691406251E-05;10 mA;
872.396394797411;0.72265625;126.399999680871;633;1.50451660156251E-05;10 mA;
872.596394796906;0.7232666015625;126.599999680366;634;1.6357421875E-05;10 mA;
872.796394796401;0.723876953125;126.799999679861;635;1.59301757812499E-05;10 mA;
872.996394795896;0.7244873046875;126.999999679356;636;1.73339843750001E-05;10 mA;
873.196394795391;0.72509765625;127.199999678851;637;1.7059326171875E-05;10 mA;
873.396394794886;0.7257080078125;127.399999678346;638;1.5533447265625E-05;10 mA;
873.596394794381;0.726318359375;127.599999677841;639;1.6448974609375E-05;10 mA;
873.796394793876;0.7269287109375;127.799999677336;640;1.59606933593751E-05;10 mA;
873.996394793371;0.7275390625;127.999999676831;641;1.45874023437501E-05;10 mA;
874.196394792866;0.7281494140625;128.199999676326;642;1.5594482421875E-05;10 mA;
874.396394792361;0.728759765625;128.399999675821;643;1.678466796875E-05;10 mA;
874.596394791856;0.7293701171875;128.599999675316;644;1.52587890625E-05;10 mA;
874.796394791351;0.72998046875;128.799999674811;645;1.495361328125E-05;10 mA;
874.996394790846;0.7305908203125;128.999999674306;646;1.4312744140625E-05;10 mA;
875.196394790342;0.731201171875;129.199999673801;647;1.416015625E-05;10 mA;
875.396394789837;0.7318115234375;129.399999673296;648;1.3702392578125E-05;10 mA;
875.596394789332;0.732421875;129.599999672791;649;1.7974853515625E-05;10 mA;
875.796394788827;0.7330322265625;129.799999672287;650;1.44348144531251E-05;10 mA;
875.996394788322;0.733642578125;129.999999671782;651;1.51977539062501E-05;10 mA;
876.196394787817;0.7342529296875;130.199999671277;652;1.678466796875E-05;10 mA;
876.396394787312;0.73455810546875;130.399999670772;653;1.708984375E-05;10 mA;
876.596394786807;0.73516845703125;130.599999670267;654;1.3885498046875E-05;10 mA;
876.796394786302;0.73577880859375;130.799999669762;655;1.45568847656249E-05;10 mA;
876.996394785797;0.73638916015625;130.999999669257;656;1.5716552734375E-05;10 mA;
877.196394785292;0.73699951171875;131.199999668752;657;1.62353515624999E-05;10 mA;
877.396394784787;0.73760986328125;131.399999668247;658;1.7547607421875E-05;10 mA;
877.596394784282;0.73822021484375;131.599999667742;659;1.568603515625E-05;10 mA;
877.796394783777;0.738525390625;131.799999667237;660;1.507568359375E-05;10 mA;
877.996394783272;0.7391357421875;131.999999666732;661;1.39465332031249E-05;10 mA;
878.196394782767;0.73974609375;132.199999666227;662;1.42517089843749E-05;10 mA;
878.396394782262;0.7403564453125;132.399999665722;663;1.77001953125E-05;10 mA;
878.596394781757;0.740966796875;132.599999665217;664;1.3427734375E-05;10 mA;
878.796394781252;0.74127197265625;132.799999664712;665;1.53198242187499E-05;10 mA;
878.996394780747;0.74188232421875;132.999999664207;666;1.35498046875E-05;10 mA;
879.196394780242;0.74249267578125;133.199999663702;667;1.5716552734375E-05;10 mA;
879.396394779738;0.74310302734375;133.399999663197;668;1.67236328125001E-05;10 mA;
879.596394779233;0.74371337890625;133.599999662692;669;1.6326904296875E-05;10 mA;
879.796394778728;0.74432373046875;133.799999662187;670;1.54724121093749E-05;10 mA;
879.996394778223;0.74493408203125;133.999999661683;671;1.50451660156251E-05;10 mA;
880.196394777718;0.7452392578125;134.199999661178;672;1.71813964843751E-05;10 mA;
880.396394777213;0.745849609375;134.399999660673;673;1.40991210937499E-05;10 mA;
880.596394776708;0.7464599609375;134.599999660168;674;1.50146484374999E-05;10 mA;
880.796394776203;0.7470703125;134.799999659663;675;1.6357421875E-05;10 mA;
880.996394775698;0.7476806640625;134.999999659158;676;1.4007568359375E-05;10 mA;
881.196394775193;0.748291015625;135.199999658653;677;1.41296386718751E-05;10 mA;
881.396394774688;0.74859619140625;135.399999658148;678;1.568603515625E-05;10 mA;
881.596394774183;0.74920654296875;135.599999657643;679;1.3427734375E-05;10 mA;
881.796394773678;0.74981689453125;135.799999657138;680;1.422119140625E-05;10 mA;
881.996394773173;0.7501220703125;135.999999656633;681;1.39770507812501E-05;10 mA;
882.196394772668;0.750732421875;136.199999656128;682;1.544189453125E-05;10 mA;
882.396394772163;0.7513427734375;136.399999655623;683;1.44042968749999E-05;10 mA;
882.596394771658;0.751953125;136.599999655118;684;1.47399902343751E-05;10 mA;
882.796394771153;0.75225830078125;136.799999654613;685;1.44042968749999E-05;10 mA;
882.996394770648;0.75286865234375;136.999999654108;686;1.5869140625E-05;10 mA;
883.196394770143;0.75347900390625;137.199999653603;687;1.7547607421875E-05;10 mA;
883.396394769639;0.7537841796875;137.399999653098;688;1.57775878906249E-05;10 mA;
883.596394769134;0.75439453125;137.599999652593;689;1.5533447265625E-05;10 mA;
883.796394768629;0.7550048828125;137.799999652088;690;1.42822265625001E-05;10 mA;
883.996394768124;0.755615234375;137.999999651583;691;1.34887695312499E-05;10 mA;
884.196394767619;0.75592041015625;138.199999651079;692;1.57775878906249E-05;10 mA;
884.396394767114;0.75653076171875;138.399999650574;693;1.36718750000001E-05;10 mA;
884.596394766609;0.75714111328125;138.599999650069;694;1.47399902343751E-05;10 mA;
884.796394766104;0.75775146484375;138.799999649564;695;1.74560546874999E-05;10 mA;
884.996394765599;0.758056640625;138.999999649059;696;1.7059326171875E-05;10 mA;
885.196394765094;0.7586669921875;139.199999648554;697;1.57775878906249E-05;10 mA;
885.396394764589;0.75927734375;139.399999648049;698;1.568603515625E-05;10 mA;
885.596394764084;0.75958251953125;139.599999647544;699;1.6815185546875E-05;10 mA;
885.796394763579;0.76019287109375;139.799999647039;700;1.41296386718751E-05;10 mA;
885.996394763074;0.76080322265625;139.999999646534;701;1.68457031249999E-05;10 mA;
886.196394762569;0.7611083984375;140.199999646029;702;1.544189453125E-05;10 mA;
886.396394762064;0.76171875;140.399999645524;703;1.61132812500001E-05;10 mA;
886.596394761559;0.7623291015625;140.599999645019;704;1.446533203125E-05;10 mA;
886.796394761054;0.76263427734375;140.799999644514;705;1.54724121093749E-05;10 mA;
886.996394760549;0.76324462890625;140.999999644009;706;1.678466796875E-05;10 mA;
887.196394760044;0.76385498046875;141.199999643504;707;1.556396484375E-05;10 mA;
887.396394759539;0.76416015625;141.399999642999;708;1.3763427734375E-05;10 mA;
887.596394759035;0.7647705078125;141.599999642494;709;1.69982910156249E-05;10 mA;
887.79639475853;0.765380859375;141.799999641989;710;1.73034667968749E-05;10 mA;
887.996394758025;0.76568603515625;141.999999641484;711;1.54724121093749E-05;10 mA;
888.19639475752;0.76629638671875;142.19999964098;712;1.72119140625E-05;10 mA;
888.396394757015;0.76690673828125;142.399999640475;713;1.4678955078125E-05;10 mA;
888.59639475651;0.7672119140625;142.59999963997;714;1.385498046875E-05;10 mA;
888.796394756005;0.767822265625;142.799999639465;715;1.7669677734375E-05;10 mA;
888.9963947555;0.7684326171875;142.99999963896;716;1.568603515625E-05;10 mA;
889.196394754995;0.76873779296875;143.199999638455;717;1.7974853515625E-05;10 mA;
889.39639475449;0.76934814453125;143.39999963795;718;1.324462890625E-05;10 mA;
889.596394753985;0.7696533203125;143.599999637445;719;1.678466796875E-05;10 mA;
889.79639475348;0.770263671875;143.79999963694;720;1.36413574218749E-05;10 mA;
889.996394752975;0.7708740234375;143.999999636435;721;1.788330078125E-05;10 mA;
890.19639475247;0.771484375;144.19999963593;722;1.71813964843751E-05;10 mA;
890.396394751965;0.77178955078125;144.399999635425;723;1.44348144531251E-05;10 mA;
890.59639475146;0.77239990234375;144.59999963492;724;1.7120361328125E-05;10 mA;
890.796394750955;0.77301025390625;144.799999634415;725;1.56249999999999E-05;10 mA;
890.99639475045;0.7733154296875;144.99999963391;726;1.52587890625E-05;10 mA;
891.196394749945;0.77392578125;145.199999633405;727;1.48620605468749E-05;10 mA;
891.39639474944;0.77423095703125;145.3999996329;728;1.5411376953125E-05;10 mA;
891.596394748935;0.77484130859375;145.599999632395;729;1.788330078125E-05;10 mA;
891.796394748431;0.775146484375;145.79999963189;730;1.312255859375E-05;10 mA;
891.996394747926;0.7757568359375;145.999999631385;731;1.568603515625E-05;10 mA;
892.196394747421;0.7763671875;146.19999963088;732;1.45263671875E-05;10 mA;
892.396394746916;0.77667236328125;146.399999630376;733;1.59912109375E-05;10 mA;
892.596394746411;0.77728271484375;146.599999629871;734;1.41296386718751E-05;10 mA;
892.796394745906;0.777587890625;146.799999629366;735;1.57775878906249E-05;10 mA;
892.996394745401;0.7781982421875;146.999999628861;736;1.3397216796875E-05;10 mA;
893.196394744896;0.77850341796875;147.199999628356;737;1.44348144531251E-05;10 mA;
893.396394744391;0.77911376953125;147.399999627851;738;1.6448974609375E-05;10 mA;
893.596394743886;0.7794189453125;147.599999627346;739;1.422119140625E-05;10 mA;
893.796394743381;0.780029296875;147.799999626841;740;1.495361328125E-05;10 mA;
893.996394742876;0.7806396484375;147.999999626336;741;1.44348144531251E-05;10 mA;
894.196394742371;0.78094482421875;148.199999625831;742;1.4312744140625E-05;10 mA;
894.396394741866;0.78155517578125;148.399999625326;743;1.4007568359375E-05;10 mA;
894.596394741361;0.7818603515625;148.599999624821;744;1.42517089843749E-05;10 mA;
894.796394740856;0.78216552734375;148.799999624316;745;1.69982910156249E-05;10 mA;
894.996394740351;0.78277587890625;148.999999623811;746;1.5716552734375E-05;10 mA;
895.196394739846;0.7830810546875;149.199999623306;747;1.5716552734375E-05;10 mA;
895.396394739341;0.78369140625;149.399999622801;748;1.6754150390625E-05;10 mA;
895.596394738836;0.7843017578125;149.599999622296;749;1.47094726562499E-05;10 mA;
895.796394738332;0.78460693359375;149.799999621791;750;1.54724121093749E-05;10 mA;
895.996394737827;0.784912109375;149.999999621286;751;1.59912109375E-05;10 mA;
896.196394737322;0.7855224609375;150.199999620781;752;1.62353515624999E-05;10 mA;
896.396394736817;0.78582763671875;150.399999620277;753;1.59606933593751E-05;10 mA;
896.596394736312;0.78643798828125;150.599999619772;754;1.68762207031251E-05;10 mA;
896.796394735807;0.7867431640625;150.799999619267;755;1.50451660156251E-05;10 mA;
896.996394735302;0.787353515625;150.999999618762;756;1.57470703125E-05;10 mA;
897.196394734797;0.78765869140625;151.199999618257;757;1.416015625E-05;10 mA;
897.396394734292;0.78826904296875;151.399999617752;758;1.62353515624999E-05;10 mA;
897.596394733787;0.78857421875;151.599999617247;759;1.556396484375E-05;10 mA;
897.796394733282;0.7891845703125;151.799999616742;760;1.5594482421875E-05;10 mA;
897.996394732777;0.78948974609375;151.999999616237;761;1.5380859375E-05;10 mA;
898.196394732272;0.789794921875;152.199999615732;762;1.6021728515625E-05;10 mA;
898.396394731767;0.7904052734375;152.399999615227;763;1.568603515625E-05;10 mA;
898.596394731262;0.79071044921875;152.599999614722;764;1.45874023437501E-05;10 mA;
898.796394730757;0.79132080078125;152.799999614217;765;1.56555175781251E-05;10 mA;
898.996394730252;0.7916259765625;152.999999613712;766;1.629638671875E-05;10 mA;
899.196394729747;0.79193115234375;153.199999613207;767;1.5411376953125E-05;10 mA;
899.396394729242;0.79254150390625;153.399999612702;768;1.544189453125E-05;10 mA;
899.596394728737;0.7928466796875;153.599999612197;769;1.38244628906251E-05;10 mA;
899.796394728232;0.79345703125;153.799999611692;770;1.53503417968751E-05;10 mA;
899.996394727728;0.79376220703125;153.999999611187;771;1.6143798828125E-05;10 mA;
900.196394727223;0.7940673828125;154.199999610682;772;1.50451660156251E-05;10 mA;
900.396394726718;0.794677734375;154.399999610177;773;1.62353515624999E-05;10 mA;
900.596394726213;0.79498291015625;154.599999609673;774;1.5716552734375E-05;10 mA;
900.796394725708;0.79559326171875;154.799999609168;775;1.5106201171875E-05;10 mA;
900.996394725203;0.7958984375;154.999999608663;776;1.61132812500001E-05;10 mA;
901.196394724698;0.79620361328125;155.199999608158;777;1.65710449218751E-05;10 mA;
901.396394724193;0.79681396484375;155.399999607653;778;1.45874023437501E-05;10 mA;
901.596394723688;0.797119140625;155.599999607148;779;1.50146484374999E-05;10 mA;
901.796394723183;0.79742431640625;155.799999606643;780;1.55029296875001E-05;10 mA;
901.996394722678;0.79803466796875;155.999999606138;781;1.56555175781251E-05;10 mA;
902.196394722173;0.79833984375;156.199999605633;782;1.60827636718749E-05;10 mA;
902.396394721668;0.79864501953125;156.399999605128;783;1.58081054687501E-05;10 mA;
902.596394721163;0.79925537109375;156.599999604623;784;1.617431640625E-05;10 mA;
902.796394720658;0.799560546875;156.799999604118;785;1.55029296875001E-05;10 mA;
902.996394720153;0.8001708984375;156.999999603613;786;1.513671875E-05;10 mA;
903.196394719648;0.80047607421875;157.199999603108;787;1.62658691406251E-05;10 mA;
903.396394719143;0.80078125;157.399999602603;788;1.42822265625001E-05;10 mA;
903.596394718638;0.8013916015625;157.599999602098;789;1.52587890625E-05;10 mA;
903.796394718133;0.80169677734375;157.799999601593;790;1.4373779296875E-05;10 mA;
903.996394717629;0.802001953125;157.999999601088;791;1.62658691406251E-05;10 mA;
904.196394717124;0.8026123046875;158.199999600583;792;1.47399902343751E-05;10 mA;
904.396394716619;0.80291748046875;158.399999600078;793;1.4923095703125E-05;10 mA;
904.596394716114;0.80322265625;158.599999599573;794;1.47094726562499E-05;10 mA;
904.796394715609;0.80352783203125;158.799999599069;795;1.54724121093749E-05;10 mA;
904.996394715104;0.80413818359375;158.999999598564;796;1.57775878906249E-05;10 mA;
905.196394714599;0.804443359375;159.199999598059;797;1.52587890625E-05;10 mA;
905.396394714094;0.80474853515625;159.399999597554;798;1.5411376953125E-05;10 mA;
905.596394713589;0.8050537109375;159.599999597049;799;1.44042968749999E-05;10 mA;
905.796394713084;0.80535888671875;159.799999596544;800;1.4190673828125E-05;10 mA;
905.996394712579;0.80596923828125;159.999999596039;801;1.73339843750001E-05;10 mA;
906.196394712074;0.8062744140625;160.199999595534;802;1.71813964843751E-05;10 mA;
906.396394711569;0.80657958984375;160.399999595029;803;1.50451660156251E-05;10 mA;
906.596394711064;0.806884765625;160.599999594524;804;1.416015625E-05;10 mA;
906.796394710559;0.8074951171875;160.799999594019;805;1.5228271484375E-05;10 mA;
906.996394710054;0.80780029296875;160.999999593514;806;1.605224609375E-05;10 mA;
907.196394709549;0.80810546875;161.199999593009;807;1.51672363281249E-05;10 mA;
907.396394709044;0.80841064453125;161.399999592504;808;1.2969970703125E-05;10 mA;
907.596394708539;0.8087158203125;161.599999591999;809;1.324462890625E-05;10 mA;
907.796394708034;0.809326171875;161.799999591494;810;1.76086425781249E-05;10 mA;
907.996394707529;0.80963134765625;161.999999590989;811;1.27563476562501E-05;10 mA;
908.196394707025;0.8099365234375;162.199999590484;812;1.568603515625E-05;10 mA;
908.39639470652;0.81024169921875;162.399999589979;813;1.55029296875001E-05;10 mA;
908.596394706015;0.81085205078125;162.599999589474;814;1.55029296875001E-05;10 mA;
908.79639470551;0.8111572265625;162.79999958897;815;1.739501953125E-05;10 mA;
908.996394705005;0.81146240234375;162.999999588465;816;1.5838623046875E-05;10 mA;
909.1963947045;0.811767578125;163.19999958796;817;1.751708984375E-05;10 mA;
909.396394703995;0.81207275390625;163.399999587455;818;1.74560546874999E-05;10 mA;
909.59639470349;0.8123779296875;163.59999958695;819;1.678466796875E-05;10 mA;
909.796394702985;0.81268310546875;163.799999586445;820;1.59301757812499E-05;10 mA;
909.99639470248;0.81298828125;163.99999958594;821;1.5289306640625E-05;10 mA;
910.196394701975;0.8135986328125;164.199999585435;822;1.5594482421875E-05;10 mA;
910.39639470147;0.81390380859375;164.39999958493;823;1.79138183593749E-05;10 mA;
910.596394700965;0.814208984375;164.599999584425;824;1.6357421875E-05;10 mA;
910.79639470046;0.81451416015625;164.79999958392;825;1.5411376953125E-05;10 mA;
910.996394699955;0.8148193359375;164.999999583415;826;1.483154296875E-05;10 mA;
911.19639469945;0.81512451171875;165.19999958291;827;1.495361328125E-05;10 mA;
911.396394698945;0.81573486328125;165.399999582405;828;1.48925781250001E-05;10 mA;
911.59639469844;0.8160400390625;165.5999995819;829;1.59301757812499E-05;10 mA;
911.796394697935;0.81634521484375;165.799999581395;830;1.7547607421875E-05;10 mA;
911.99639469743;0.816650390625;165.99999958089;831;1.45874023437501E-05;10 mA;
912.196394696925;0.81695556640625;166.199999580385;832;1.52587890625E-05;10 mA;
912.396394696421;0.8172607421875;166.39999957988;833;1.64794921875E-05;10 mA;
912.596394695916;0.81756591796875;166.599999579375;834;1.7578125E-05;10 mA;
912.796394695411;0.81787109375;166.79999957887;835;1.5899658203125E-05;10 mA;
912.996394694906;0.81817626953125;166.999999578366;836;1.605224609375E-05;10 mA;
913.196394694401;0.8184814453125;167.199999577861;837;1.35192871093751E-05;10 mA;
913.396394693896;0.81878662109375;167.399999577356;838;1.53198242187499E-05;10 mA;
913.596394693391;0.81939697265625;167.599999576851;839;1.361083984375E-05;10 mA;
913.796394692886;0.8197021484375;167.799999576346;840;1.53198242187499E-05;10 mA;
913.996394692381;0.82000732421875;167.999999575841;841;1.62353515624999E-05;10 mA;
914.196394691876;0.8203125;168.199999575336;842;1.64184570312501E-05;10 mA;
914.396394691371;0.82061767578125;168.399999574831;843;1.45568847656249E-05;10 mA;
914.596394690866;0.8209228515625;168.599999574326;844;1.62658691406251E-05;10 mA;
914.796394690361;0.82122802734375;168.799999573821;845;1.58081054687501E-05;10 mA;
914.996394689856;0.821533203125;168.999999573316;846;1.6937255859375E-05;10 mA;
915.196394689351;0.82183837890625;169.199999572811;847;1.361083984375E-05;10 mA;
915.396394688846;0.8221435546875;169.399999572306;848;1.5869140625E-05;10 mA;
915.596394688341;0.82244873046875;169.599999571801;849;1.39465332031249E-05;10 mA;
915.796394687836;0.82275390625;169.799999571296;850;1.72119140625E-05;10 mA;
915.996394687331;0.82305908203125;169.999999570791;851;1.6448974609375E-05;10 mA;
916.196394686826;0.8233642578125;170.199999570286;852;1.47705078125E-05;10 mA;
916.396394686322;0.82366943359375;170.399999569781;853;1.446533203125E-05;10 mA;
916.596394685817;0.823974609375;170.599999569276;854;1.5533447265625E-05;10 mA;
916.796394685312;0.82427978515625;170.799999568771;855;1.3458251953125E-05;10 mA;
916.996394684807;0.8245849609375;170.999999568267;856;1.35498046875E-05;10 mA;
917.196394684302;0.82489013671875;171.199999567762;857;1.361083984375E-05;10 mA;
917.396394683797;0.8251953125;171.399999567257;858;1.34887695312499E-05;10 mA;
917.596394683292;0.82550048828125;171.599999566752;859;1.79443359375001E-05;10 mA;
917.796394682787;0.8258056640625;171.799999566247;860;1.6357421875E-05;10 mA;
917.996394682282;0.82611083984375;171.999999565742;861;1.45568847656249E-05;10 mA;
918.196394681777;0.826416015625;172.199999565237;862;1.33361816406249E-05;10 mA;
918.396394681272;0.82672119140625;172.399999564732;863;1.4923095703125E-05;10 mA;
918.596394680767;0.8270263671875;172.599999564227;864;1.4190673828125E-05;10 mA;
918.796394680262;0.82733154296875;172.799999563722;865;1.66015625E-05;10 mA;
918.996394679757;0.82763671875;172.999999563217;866;1.56555175781251E-05;10 mA;
919.196394679252;0.82794189453125;173.199999562712;867;1.5594482421875E-05;10 mA;
919.396394678747;0.8282470703125;173.399999562207;868;1.446533203125E-05;10 mA;
919.596394678242;0.82855224609375;173.599999561702;869;1.44042968749999E-05;10 mA;
919.796394677737;0.828857421875;173.799999561197;870;1.24206542968749E-05;10 mA;
919.996394677232;0.82916259765625;173.999999560692;871;1.27258300781249E-05;10 mA;
920.196394676727;0.8294677734375;174.199999560187;872;1.5106201171875E-05;10 mA;
920.396394676222;0.82977294921875;174.399999559682;873;1.47094726562499E-05;10 mA;
920.596394675718;0.830078125;174.599999559177;874;1.56555175781251E-05;10 mA;
920.796394675213;0.83038330078125;174.799999558672;875;1.59301757812499E-05;10 mA;
920.996394674708;0.8306884765625;174.999999558167;876;1.74865722656251E-05;10 mA;
921.196394674203;0.83099365234375;175.199999557663;877;1.61132812500001E-05;10 mA;
921.396394673698;0.831298828125;175.399999557158;878;1.59301757812499E-05;10 mA;
921.596394673193;0.83160400390625;175.599999556653;879;1.507568359375E-05;10 mA;
921.796394672688;0.8319091796875;175.799999556148;880;1.5594482421875E-05;10 mA;
921.996394672183;0.83221435546875;175.999999555643;881;1.42822265625001E-05;10 mA;
922.196394671678;0.83221435546875;176.199999555138;882;1.50451660156251E-05;10 mA;
922.396394671173;0.83282470703125;176.399999554633;883;1.59301757812499E-05;10 mA;
922.596394670668;0.8331298828125;176.599999554128;884;1.53198242187499E-05;10 mA;
922.796394670163;0.83343505859375;176.799999553623;885;1.63879394531249E-05;10 mA;
922.996394669658;0.83343505859375;176.999999553118;886;1.54724121093749E-05;10 mA;
923.196394669153;0.83404541015625;177.199999552613;887;1.513671875E-05;10 mA;
923.396394668648;0.83404541015625;177.399999552108;888;1.5869140625E-05;10 mA;
923.596394668143;0.8343505859375;177.599999551603;889;1.483154296875E-05;10 mA;
923.796394667638;0.83465576171875;177.799999551098;890;1.66931152343749E-05;10 mA;
923.996394667133;0.8349609375;177.999999550593;891;1.5869140625E-05;10 mA;
924.196394666628;0.83526611328125;178.199999550088;892;1.50146484374999E-05;10 mA;
924.396394666123;0.8355712890625;178.399999549583;893;1.5411376953125E-05;10 mA;
924.596394665619;0.83587646484375;178.599999549078;894;1.556396484375E-05;10 mA;
924.796394665114;0.836181640625;178.799999548573;895;1.31835937499999E-05;10 mA;
924.996394664609;0.83648681640625;178.999999548068;896;1.5869140625E-05;10 mA;
925.196394664104;0.8367919921875;179.199999547563;897;1.6021728515625E-05;10 mA;
925.396394663599;0.8367919921875;179.399999547059;898;1.37939453124999E-05;10 mA;
925.596394663094;0.83709716796875;179.599999546554;899;1.56555175781251E-05;10 mA;
925.796394662589;0.83740234375;179.799999546049;900;1.6143798828125E-05;10 mA;
925.996394662084;0.83770751953125;179.999999545544;901;1.33361816406249E-05;10 mA;
926.196394661579;0.8380126953125;180.199999545039;902;1.68762207031251E-05;10 mA;
926.396394661074;0.83831787109375;180.399999544534;903;1.47399902343751E-05;10 mA;
926.596394660569;0.83831787109375;180.599999544029;904;1.7242431640625E-05;10 mA;
926.796394660064;0.838623046875;180.799999543524;905;1.32141113281251E-05;10 mA;
926.996394659559;0.83892822265625;180.999999543019;906;1.36718750000001E-05;10 mA;
927.196394659054;0.8392333984375;181.199999542514;907;1.5594482421875E-05;10 mA;
927.396394658549;0.83953857421875;181.399999542009;908;1.6632080078125E-05;10 mA;
927.596394658044;0.83984375;181.599999541504;909;1.51977539062501E-05;10 mA;
927.796394657539;0.83984375;181.799999540999;910;1.65405273437499E-05;10 mA;
927.996394657034;0.84014892578125;181.999999540494;911;1.33361816406249E-05;10 mA;
928.196394656529;0.8404541015625;182.199999539989;912;1.690673828125E-05;10 mA;
928.396394656024;0.84075927734375;182.399999539484;913;1.59301757812499E-05;10 mA;
928.596394655519;0.841064453125;182.599999538979;914;1.3916015625E-05;10 mA;
928.796394655015;0.841064453125;182.799999538474;915;1.51977539062501E-05;10 mA;
928.99639465451;0.84136962890625;182.999999537969;916;1.53503417968751E-05;10 mA;
929.196394654005;0.8416748046875;183.199999537464;917;1.70288085937501E-05;10 mA;
929.3963946535;0.8416748046875;183.39999953696;918;1.66015625E-05;10 mA;
929.596394652995;0.84197998046875;183.599999536455;919;1.69982910156249E-05;10 mA;
929.79639465249;0.84228515625;183.79999953595;920;1.513671875E-05;10 mA;
929.996394651985;0.84259033203125;183.999999535445;921;1.57470703125E-05;10 mA;
930.19639465148;0.8428955078125;184.19999953494;922;1.5716552734375E-05;10 mA;
930.396394650975;0.84320068359375;184.399999534435;923;1.48620605468749E-05;10 mA;
930.59639465047;0.84320068359375;184.59999953393;924;1.61132812500001E-05;10 mA;
930.796394649965;0.843505859375;184.799999533425;925;1.5594482421875E-05;10 mA;
930.99639464946;0.84381103515625;184.99999953292;926;1.53503417968751E-05;10 mA;
931.196394648955;0.8441162109375;185.199999532415;927;1.7242431640625E-05;10 mA;
931.39639464845;0.84442138671875;185.39999953191;928;1.6754150390625E-05;10 mA;
931.596394647945;0.84442138671875;185.599999531405;929;1.385498046875E-05;10 mA;
931.79639464744;0.8447265625;185.7999995309;930;1.36718750000001E-05;10 mA;
931.996394646935;0.84503173828125;185.999999530395;931;1.708984375E-05;10 mA;
932.19639464643;0.8453369140625;186.19999952989;932;1.64794921875E-05;10 mA;
932.396394645925;0.8453369140625;186.399999529385;933;1.416015625E-05;10 mA;
932.59639464542;0.84564208984375;186.59999952888;934;1.495361328125E-05;10 mA;
932.796394644915;0.845947265625;186.799999528375;935;1.31835937499999E-05;10 mA;
932.996394644411;0.84625244140625;186.99999952787;936;1.6021728515625E-05;10 mA;
933.196394643906;0.8465576171875;187.199999527365;937;1.55029296875001E-05;10 mA;
933.396394643401;0.8465576171875;187.39999952686;938;1.41296386718751E-05;10 mA;
933.596394642896;0.84686279296875;187.599999526356;939;1.3916015625E-05;10 mA;
933.796394642391;0.84716796875;187.799999525851;940;1.5716552734375E-05;10 mA;
933.996394641886;0.84716796875;187.999999525346;941;1.495361328125E-05;10 mA;
934.196394641381;0.84747314453125;188.199999524841;942;1.446533203125E-05;10 mA;
934.396394640876;0.8477783203125;188.399999524336;943;1.82189941406249E-05;10 mA;
934.596394640371;0.8477783203125;188.599999523831;944;1.416015625E-05;10 mA;
934.796394639866;0.84808349609375;188.799999523326;945;1.5289306640625E-05;10 mA;
934.996394639361;0.848388671875;188.999999522821;946;1.5899658203125E-05;10 mA;
935.196394638856;0.84869384765625;189.199999522316;947;1.483154296875E-05;10 mA;
935.396394638351;0.8489990234375;189.399999521811;948;1.30310058593749E-05;10 mA;
935.596394637846;0.84930419921875;189.599999521306;949;1.76391601562501E-05;10 mA;
935.796394637341;0.84930419921875;189.799999520801;950;1.7822265625E-05;10 mA;
935.996394636836;0.849609375;189.999999520296;951;1.3275146484375E-05;10 mA;
936.196394636331;0.84991455078125;190.199999519791;952;1.45263671875E-05;10 mA;
936.396394635826;0.8502197265625;190.399999519286;953;1.495361328125E-05;10 mA;WE(1).Potential > 0,85 V
936.596394635321;0.8502197265625;190.599999518781;954;1.6021728515625E-05;10 mA;WE(1).Potential > 0,85 V
936.796394634816;0.85052490234375;190.799999518276;955;1.36413574218749E-05;10 mA;WE(1).Potential > 0,85 V
936.996394634312;0.850830078125;190.999999517771;956;1.57775878906249E-05;10 mA;WE(1).Potential > 0,85 V
