Time (s);WE(1).Potential (V);Corrected time (s);Index;WE(1).Current (A);Current range;Cutoffs
17.5442379557051;0.76019287109375;0;1;-8.79821777343751E-05;10 mA;
17.7442379552001;0.71868896484375;0.199999999495049;2;-9.0179443359375E-05;10 mA;
17.9442379546952;0.6866455078125;0.399999998990097;3;-8.917236328125E-05;10 mA;
18.1442379541902;0.65948486328125;0.599999998485146;4;-9.002685546875E-05;10 mA;
18.3442379536853;0.63568115234375;0.799999997980194;5;-9.04541015625E-05;10 mA;
18.5442379531803;0.614013671875;0.999999997475243;6;-8.6181640625E-05;10 mA;
18.7442379526753;0.59417724609375;1.19999999697029;7;-9.04235839843751E-05;10 mA;
18.9442379521704;0.5755615234375;1.39999999646534;8;-8.88671874999999E-05;10 mA;
19.1442379516654;0.5584716796875;1.59999999596039;9;-8.819580078125E-05;10 mA;
19.3442379511605;0.5426025390625;1.79999999545544;10;-8.740234375E-05;10 mA;
19.5442379506555;0.52734375;1.99999999495049;11;-8.95080566406251E-05;10 mA;
19.7442379501506;0.51300048828125;2.19999999444553;12;-8.85620117187499E-05;10 mA;
19.9442379496456;0.49957275390625;2.39999999394058;13;-8.68835449218749E-05;10 mA;
20.1442379491407;0.48663330078125;2.59999999343563;14;-8.636474609375E-05;10 mA;
20.3442379486357;0.474365234375;2.79999999293068;15;-8.9569091796875E-05;10 mA;
20.5442379481308;0.46270751953125;2.99999999242573;16;-8.880615234375E-05;10 mA;
20.7442379476258;0.451629638671875;3.19999999192078;17;-8.97216796875E-05;10 mA;
20.9442379471209;0.441070556640625;3.39999999141583;18;-8.7005615234375E-05;10 mA;
21.1442379466159;0.430999755859375;3.59999999091087;19;-8.76464843749999E-05;10 mA;
21.344237946111;0.421417236328125;3.79999999040592;20;-8.72192382812501E-05;10 mA;
21.544237945606;0.412200927734375;3.99999998990097;21;-8.8226318359375E-05;10 mA;
21.7442379451011;0.4034423828125;4.19999998939602;22;-8.758544921875E-05;10 mA;
21.9442379445961;0.394989013671875;4.39999998889107;23;-8.79821777343751E-05;10 mA;
22.1442379440912;0.38690185546875;4.59999998838612;24;-8.8165283203125E-05;10 mA;
22.3442379435862;0.379119873046875;4.79999998788116;25;-8.746337890625E-05;10 mA;
22.5442379430813;0.37158203125;4.99999998737621;26;-8.8470458984375E-05;10 mA;
22.7442379425763;0.36431884765625;5.19999998687126;27;-9.02099609375E-05;10 mA;
22.9442379420714;0.357269287109375;5.39999998636631;28;-8.758544921875E-05;10 mA;
23.1442379415664;0.35040283203125;5.59999998586136;29;-8.93249511718749E-05;10 mA;
23.3442379410615;0.34368896484375;5.79999998535641;30;-8.96301269531249E-05;10 mA;
23.5442379405565;0.337158203125;5.99999998485146;31;-8.89892578125E-05;10 mA;
23.7442379400516;0.33074951171875;6.1999999843465;32;-9.051513671875E-05;10 mA;
23.9442379395466;0.324462890625;6.39999998384155;33;-8.8958740234375E-05;10 mA;
24.1442379390417;0.3182373046875;6.5999999833366;34;-8.7738037109375E-05;10 mA;
24.3442379385367;0.3121337890625;6.79999998283165;35;-8.758544921875E-05;10 mA;
24.5442379380318;0.30609130859375;6.9999999823267;36;-8.76770019531251E-05;10 mA;
24.7442379375268;0.30010986328125;7.19999998182175;37;-8.8348388671875E-05;10 mA;
24.9442379370219;0.294219970703125;7.3999999813168;38;-8.72192382812501E-05;10 mA;
25.1442379365169;0.288360595703125;7.59999998081184;39;-8.96301269531249E-05;10 mA;
25.344237936012;0.28253173828125;7.79999998030689;40;-8.96606445312501E-05;10 mA;
25.544237935507;0.2767333984375;7.99999997980194;41;-8.807373046875E-05;10 mA;
25.744237935002;0.270904541015625;8.19999997929699;42;-9.05456542968749E-05;10 mA;
25.9442379344971;0.26513671875;8.39999997879204;43;-8.79516601562499E-05;10 mA;
26.1442379339921;0.25933837890625;8.59999997828709;44;-8.8348388671875E-05;10 mA;
26.3442379334872;0.253570556640625;8.79999997778214;45;-8.73718261718751E-05;10 mA;
26.5442379329822;0.247802734375;8.99999997727718;46;-8.93554687500001E-05;10 mA;
26.7442379324773;0.242034912109375;9.19999997677223;47;-9.05456542968749E-05;10 mA;
26.9442379319723;0.236236572265625;9.39999997626728;48;-9.08813476562501E-05;10 mA;
27.1442379314674;0.230499267578125;9.59999997576233;49;-8.8775634765625E-05;10 mA;
27.3442379309624;0.224700927734375;9.79999997525738;50;-8.87451171875001E-05;10 mA;
27.5442379304575;0.21893310546875;9.99999997475243;51;-9.0789794921875E-05;10 mA;
27.7442379299525;0.213134765625;10.1999999742475;52;-8.92028808593751E-05;10 mA;
27.9442379294476;0.207366943359375;10.3999999737425;53;-8.81042480468749E-05;10 mA;
28.1442379289426;0.201629638671875;10.5999999732376;54;-8.72802734375E-05;10 mA;
28.3442379284377;0.19580078125;10.7999999727326;55;-8.9752197265625E-05;10 mA;
28.5442379279327;0.190032958984375;10.9999999722277;56;-8.8470458984375E-05;10 mA;
28.7442379274278;0.1842041015625;11.1999999717227;57;-8.78295898437501E-05;10 mA;
28.9442379269228;0.17840576171875;11.3999999712178;58;-8.7310791015625E-05;10 mA;
29.1442379264179;0.17254638671875;11.5999999707128;59;-9.08508300781249E-05;10 mA;
29.3442379259129;0.16668701171875;11.7999999702079;60;-9.039306640625E-05;10 mA;
29.544237925408;0.16082763671875;11.9999999697029;61;-8.70666503906251E-05;10 mA;
29.744237924903;0.15496826171875;12.199999969198;62;-8.978271484375E-05;10 mA;
29.9442379243981;0.14910888671875;12.399999968693;63;-8.8043212890625E-05;10 mA;
30.1442379238931;0.14324951171875;12.5999999681881;64;-8.7005615234375E-05;10 mA;
30.3442379233882;0.13739013671875;12.7999999676831;65;-8.6517333984375E-05;10 mA;
30.5442379228832;0.13153076171875;12.9999999671782;66;-8.69140625000001E-05;10 mA;
30.7442379223783;0.125701904296875;13.1999999666732;67;-8.7188720703125E-05;10 mA;
30.9442379218733;0.119903564453125;13.3999999661683;68;-8.7158203125E-05;10 mA;
31.1442379213684;0.1141357421875;13.5999999656633;69;-8.94775390624999E-05;10 mA;
31.3442379208634;0.108428955078125;13.7999999651583;70;-8.72192382812501E-05;10 mA;
31.5442379203585;0.102752685546875;13.9999999646534;71;-9.0606689453125E-05;10 mA;
31.7442379198535;0.09716796875;14.1999999641484;72;-8.9385986328125E-05;10 mA;
31.9442379193486;0.09161376953125;14.3999999636435;73;-8.7615966796875E-05;10 mA;
32.1442379188436;0.086151123046875;14.5999999631385;74;-8.984375E-05;10 mA;
32.3442379183386;0.080780029296875;14.7999999626336;75;-9.1705322265625E-05;10 mA;
32.5442379178337;0.07550048828125;14.9999999621286;76;-8.837890625E-05;10 mA;
32.7442379173287;0.070281982421875;15.1999999616237;77;-9.1552734375E-05;10 mA;
32.9442379168238;0.065155029296875;15.3999999611187;78;-8.55102539062499E-05;10 mA;
33.1442379163188;0.060150146484375;15.5999999606138;79;-8.8836669921875E-05;10 mA;
33.3442379158139;0.055206298828125;15.7999999601088;80;-8.79516601562499E-05;10 mA;
33.5442379153089;0.050384521484375;15.9999999596039;81;-9.1552734375E-05;10 mA;
33.744237914804;0.0456085205078125;16.1999999590989;82;-8.70361328124999E-05;10 mA;
33.944237914299;0.040997314453125;16.399999958594;83;-9.02099609375E-05;10 mA;
34.1442379137941;0.03648681640625;16.599999958089;84;-9.161376953125E-05;10 mA;
34.3442379132891;0.0320831298828125;16.7999999575841;85;-8.8775634765625E-05;10 mA;
34.5442379127842;0.0277984619140625;16.9999999570791;86;-8.8165283203125E-05;10 mA;
34.7442379122792;0.0236297607421875;17.1999999565742;87;-8.770751953125E-05;10 mA;
34.9442379117743;0.0195526123046875;17.3999999560692;88;-9.0484619140625E-05;10 mA;
35.1442379112693;0.01561279296875;17.5999999555643;89;-8.9691162109375E-05;10 mA;
35.3442379107644;0.0117431640625;17.7999999550593;90;-8.8775634765625E-05;10 mA;
35.5442379102594;0.0079986572265625;17.9999999545544;91;-9.10339355468751E-05;10 mA;
35.7442379097545;0.00433349609375;18.1999999540494;92;-8.9447021484375E-05;10 mA;
35.9442379092495;0.000759887695312503;18.3999999535445;93;-8.87145996093749E-05;10 mA;
36.1442379087446;-0.002716064453125;18.5999999530395;94;-9.08203125E-05;10 mA;
36.3442379082396;-0.00609741210937501;18.7999999525346;95;-9.05761718750001E-05;10 mA;
36.5442379077347;-0.00935974121093749;18.9999999520296;96;-8.8165283203125E-05;10 mA;
36.7442379072297;-0.012548828125;19.1999999515247;97;-8.85009765625E-05;10 mA;
36.9442379067248;-0.0156402587890625;19.3999999510197;98;-8.8958740234375E-05;10 mA;
37.1442379062198;-0.0186767578125;19.5999999505148;99;-8.892822265625E-05;10 mA;
37.3442379057149;-0.02158203125;19.7999999500098;100;-8.93249511718749E-05;10 mA;
37.5442379052099;-0.024468994140625;19.9999999495049;101;-8.758544921875E-05;10 mA;
37.744237904705;-0.027239990234375;20.1999999489999;102;-8.9752197265625E-05;10 mA;
37.9442379042;-0.029949951171875;20.399999948495;103;-8.80126953125E-05;10 mA;
38.1442379036951;-0.032598876953125;20.59999994799;104;-8.953857421875E-05;10 mA;
38.3442379031901;-0.0351837158203125;20.799999947485;105;-8.9141845703125E-05;10 mA;
38.5442379026852;-0.0376861572265625;20.9999999469801;106;-8.84399414062501E-05;10 mA;
38.7442379021802;-0.040118408203125;21.1999999464751;107;-8.917236328125E-05;10 mA;
38.9442379016753;-0.0425079345703125;21.3999999459702;108;-8.9141845703125E-05;10 mA;
39.1442379011703;-0.0448211669921875;21.5999999454652;109;-8.9385986328125E-05;10 mA;
39.3442379006653;-0.0470611572265625;21.7999999449603;110;-9.05761718750001E-05;10 mA;
39.5442379001604;-0.0492645263671875;21.9999999444553;111;-9.0789794921875E-05;10 mA;
39.7442378996554;-0.0513916015625;22.1999999439504;112;-9.1064453125E-05;10 mA;
39.9442378991505;-0.053436279296875;22.3999999434454;113;-8.868408203125E-05;10 mA;
40.1442378986455;-0.055450439453125;22.5999999429405;114;-8.90197753906249E-05;10 mA;
40.3442378981406;-0.05743408203125;22.7999999424355;115;-8.92333984375E-05;10 mA;
40.5442378976356;-0.059326171875;22.9999999419306;116;-8.8836669921875E-05;10 mA;
40.7442378971307;-0.06121826171875;23.1999999414256;117;-8.69140625000001E-05;10 mA;
40.9442378966257;-0.06304931640625;23.3999999409207;118;-8.92028808593751E-05;10 mA;
41.1442378961208;-0.0648193359375;23.5999999404157;119;-9.0301513671875E-05;10 mA;
41.3442378956158;-0.06658935546875;23.7999999399108;120;-8.68835449218749E-05;10 mA;
41.5442378951109;-0.06829833984375;23.9999999394058;121;-8.93249511718749E-05;10 mA;
41.7442378946059;-0.069976806640625;24.1999999389009;122;-9.228515625E-05;10 mA;
41.944237894101;-0.07159423828125;24.3999999383959;123;-9.27734375E-05;10 mA;
42.144237893596;-0.0732421875;24.599999937891;124;-9.0301513671875E-05;10 mA;
42.3442378930911;-0.074798583984375;24.799999937386;125;-8.85009765625E-05;10 mA;
42.5442378925861;-0.07635498046875;24.9999999368811;126;-9.02099609375E-05;10 mA;
42.7442378920812;-0.077850341796875;25.1999999363761;127;-8.7738037109375E-05;10 mA;
42.9442378915762;-0.07928466796875;25.3999999358712;128;-8.85925292968751E-05;10 mA;
43.1442378910713;-0.080718994140625;25.5999999353662;129;-9.24072265625001E-05;10 mA;
43.3442378905663;-0.082122802734375;25.7999999348613;130;-8.77685546875E-05;10 mA;
43.5442378900614;-0.083526611328125;25.9999999343563;131;-9.14306640625E-05;10 mA;
43.7442378895564;-0.084869384765625;26.1999999338514;132;-8.819580078125E-05;10 mA;
43.9442378890515;-0.086181640625;26.3999999333464;133;-8.99353027343749E-05;10 mA;
44.1442378885465;-0.0875244140625;26.5999999328415;134;-8.7005615234375E-05;10 mA;
44.3442378880416;-0.08880615234375;26.7999999323365;135;-8.892822265625E-05;10 mA;
44.5442378875366;-0.09002685546875;26.9999999318316;136;-8.8348388671875E-05;10 mA;
44.7442378870317;-0.091278076171875;27.1999999313266;137;-8.96606445312501E-05;10 mA;
44.9442378865267;-0.092529296875;27.3999999308217;138;-8.807373046875E-05;10 mA;
45.1442378860218;-0.093719482421875;27.5999999303167;139;-9.02099609375E-05;10 mA;
45.3442378855168;-0.09490966796875;27.7999999298117;140;-8.82568359374999E-05;10 mA;
45.5442378850119;-0.0960693359375;27.9999999293068;141;-8.84094238281249E-05;10 mA;
45.7442378845069;-0.097198486328125;28.1999999288018;142;-8.7188720703125E-05;10 mA;
45.944237884002;-0.09832763671875;28.3999999282969;143;-8.6700439453125E-05;10 mA;
46.144237883497;-0.09942626953125;28.5999999277919;144;-9.11560058593749E-05;10 mA;
46.344237882992;-0.100494384765625;28.799999927287;145;-8.96606445312501E-05;10 mA;WE(1).Potential < -0,1 V
46.5442378824871;-0.101531982421875;28.999999926782;146;-9.11865234375001E-05;10 mA;WE(1).Potential < -0,1 V
46.7442378819821;-0.1025390625;29.1999999262771;147;-8.81042480468749E-05;10 mA;WE(1).Potential < -0,1 V
46.9442378814772;-0.10357666015625;29.3999999257721;148;-9.0667724609375E-05;10 mA;WE(1).Potential < -0,1 V
