Time (s);WE(1).Potential (V);Corrected time (s);Index;WE(1).Current (A);Current range;Cutoffs
506.608044720938;0.81207275390625;0;1;-3.5247802734375E-05;10 mA;WE(1).Potential < -0,1 V , WE(1).Potential < -0,1 V , WE(1).Potential < -0,1 V , WE(1).Potential < -0,1 V
506.808044720433;0.79864501953125;0.199999999495049;2;-3.60107421875E-05;10 mA;
507.008044719928;0.78826904296875;0.399999998990097;3;-3.40881347656249E-05;10 mA;
507.208044719423;0.7794189453125;0.599999998485146;4;-3.570556640625E-05;10 mA;
507.408044718918;0.771484375;0.799999997980194;5;-3.53088378906249E-05;10 mA;
507.608044718413;0.76416015625;0.999999997475243;6;-3.802490234375E-05;10 mA;
507.808044717908;0.7574462890625;1.19999999697029;7;-3.704833984375E-05;10 mA;
508.008044717403;0.75103759765625;1.39999999646534;8;-3.59497070312501E-05;10 mA;
508.208044716898;0.74493408203125;1.59999999596039;9;-3.7994384765625E-05;10 mA;
508.408044716393;0.7391357421875;1.79999999545544;10;-3.59497070312501E-05;10 mA;
508.608044715888;0.733642578125;1.99999999495049;11;-3.76281738281251E-05;10 mA;
508.808044715383;0.72845458984375;2.19999999444553;12;-3.76281738281251E-05;10 mA;
509.008044714878;0.7232666015625;2.39999999394058;13;-3.4210205078125E-05;10 mA;
509.208044714373;0.71807861328125;2.59999999343563;14;-3.74450683593749E-05;10 mA;
509.408044713868;0.71319580078125;2.79999999293068;15;-3.4759521484375E-05;10 mA;
509.608044713363;0.7086181640625;2.99999999242573;16;-3.4454345703125E-05;10 mA;
509.808044712858;0.70404052734375;3.19999999192078;17;-3.5430908203125E-05;10 mA;
510.008044712353;0.699462890625;3.39999999141583;18;-3.7689208984375E-05;10 mA;
510.208044711849;0.69488525390625;3.59999999091087;19;-3.75976562499999E-05;10 mA;
510.408044711344;0.69061279296875;3.79999999040592;20;-3.43933105468749E-05;10 mA;
510.608044710839;0.68634033203125;3.99999998990097;21;-3.55224609375E-05;10 mA;
510.808044710334;0.68206787109375;4.19999998939602;22;-3.45764160156251E-05;10 mA;
511.008044709829;0.6781005859375;4.39999998889107;23;-3.71398925781249E-05;10 mA;
511.208044709324;0.67413330078125;4.59999998838612;24;-3.5980224609375E-05;10 mA;
511.408044708819;0.670166015625;4.79999998788116;25;-3.72314453125E-05;10 mA;
511.608044708314;0.66619873046875;4.99999998737621;26;-3.53088378906249E-05;10 mA;
511.808044707809;0.66253662109375;5.19999998687126;27;-3.4942626953125E-05;10 mA;
512.008044707304;0.6585693359375;5.39999998636631;28;-3.4149169921875E-05;10 mA;
512.208044706799;0.65521240234375;5.59999998586136;29;-3.631591796875E-05;10 mA;
512.408044706294;0.65155029296875;5.79999998535641;30;-3.48510742187499E-05;10 mA;
512.608044705789;0.64788818359375;5.99999998485146;31;-3.54919433593751E-05;10 mA;
512.808044705284;0.64453125;6.1999999843465;32;-3.7078857421875E-05;10 mA;
513.008044704779;0.640869140625;6.39999998384155;33;-3.53088378906249E-05;10 mA;
513.208044704274;0.63751220703125;6.5999999833366;34;-3.460693359375E-05;10 mA;
513.408044703769;0.6341552734375;6.79999998283165;35;-3.41186523437501E-05;10 mA;
513.608044703264;0.63079833984375;6.9999999823267;36;-3.71398925781249E-05;10 mA;
513.808044702759;0.62744140625;7.19999998182175;37;-3.680419921875E-05;10 mA;
514.008044702254;0.62408447265625;7.3999999813168;38;-3.44238281250001E-05;10 mA;
514.208044701749;0.62103271484375;7.59999998081184;39;-3.460693359375E-05;10 mA;
514.408044701245;0.61767578125;7.79999998030689;40;-3.6590576171875E-05;10 mA;
514.60804470074;0.6146240234375;7.99999997980194;41;-3.59497070312501E-05;10 mA;
514.808044700235;0.611572265625;8.19999997929699;42;-3.74450683593749E-05;10 mA;
515.00804469973;0.6085205078125;8.39999997879204;43;-3.619384765625E-05;10 mA;
515.208044699225;0.60546875;8.59999997828709;44;-3.59497070312501E-05;10 mA;
515.40804469872;0.6024169921875;8.79999997778214;45;-3.5430908203125E-05;10 mA;
515.608044698215;0.599365234375;8.99999997727718;46;-3.5430908203125E-05;10 mA;
515.80804469771;0.5963134765625;9.19999997677223;47;-3.65600585937501E-05;10 mA;
516.008044697205;0.59356689453125;9.39999997626728;48;-3.7689208984375E-05;10 mA;
516.2080446967;0.59051513671875;9.59999997576233;49;-3.46984863281249E-05;10 mA;
516.408044696195;0.5877685546875;9.79999997525738;50;-3.4759521484375E-05;10 mA;
516.60804469569;0.584716796875;9.99999997475243;51;-3.3843994140625E-05;10 mA;
516.808044695185;0.58197021484375;10.1999999742475;52;-3.3416748046875E-05;10 mA;
517.00804469468;0.5792236328125;10.3999999737425;53;-3.802490234375E-05;10 mA;
517.208044694175;0.57647705078125;10.5999999732376;54;-3.3599853515625E-05;10 mA;
517.40804469367;0.57373046875;10.7999999727326;55;-3.5675048828125E-05;10 mA;
517.608044693165;0.57098388671875;10.9999999722277;56;-3.460693359375E-05;10 mA;
517.80804469266;0.5682373046875;11.1999999717227;57;-3.631591796875E-05;10 mA;
518.008044692155;0.5657958984375;11.3999999712178;58;-3.4942626953125E-05;10 mA;
518.20804469165;0.56304931640625;11.5999999707128;59;-3.6468505859375E-05;10 mA;
518.408044691146;0.56060791015625;11.7999999702079;60;-3.41796875E-05;10 mA;
518.608044690641;0.557861328125;11.9999999697029;61;-3.47290039062501E-05;10 mA;
518.808044690136;0.555419921875;12.199999969198;62;-3.79638671875E-05;10 mA;
519.008044689631;0.552978515625;12.399999968693;63;-3.4912109375E-05;10 mA;
519.208044689126;0.550537109375;12.5999999681881;64;-3.436279296875E-05;10 mA;
519.408044688621;0.548095703125;12.7999999676831;65;-3.65295410156249E-05;10 mA;
519.608044688116;0.545654296875;12.9999999671782;66;-3.48815917968751E-05;10 mA;
519.808044687611;0.543212890625;13.1999999666732;67;-3.64074707031251E-05;10 mA;
520.008044687106;0.540771484375;13.3999999661683;68;-3.4942626953125E-05;10 mA;
520.208044686601;0.538330078125;13.5999999656633;69;-3.387451171875E-05;10 mA;
520.408044686096;0.53619384765625;13.7999999651583;70;-3.59191894531249E-05;10 mA;
520.608044685591;0.53375244140625;13.9999999646534;71;-3.814697265625E-05;10 mA;
520.808044685086;0.53131103515625;14.1999999641484;72;-3.41186523437501E-05;10 mA;
521.008044684581;0.5291748046875;14.3999999636435;73;-3.61328125E-05;10 mA;
521.208044684076;0.5267333984375;14.5999999631385;74;-3.582763671875E-05;10 mA;
521.408044683571;0.52459716796875;14.7999999626336;75;-3.5736083984375E-05;10 mA;
521.608044683066;0.5224609375;14.9999999621286;76;-3.52783203125E-05;10 mA;
521.808044682561;0.52001953125;15.1999999616237;77;-3.45458984374999E-05;10 mA;
522.008044682056;0.51788330078125;15.3999999611187;78;-3.38134765625001E-05;10 mA;
522.208044681551;0.5157470703125;15.5999999606138;79;-3.40576171875E-05;10 mA;
522.408044681046;0.51361083984375;15.7999999601088;80;-3.55224609375E-05;10 mA;
522.608044680542;0.511474609375;15.9999999596039;81;-3.59191894531249E-05;10 mA;
522.808044680037;0.50933837890625;16.1999999590989;82;-3.90625E-05;10 mA;
523.008044679532;0.5072021484375;16.399999958594;83;-3.3538818359375E-05;10 mA;
523.208044679027;0.50537109375;16.599999958089;84;-3.8909912109375E-05;10 mA;
523.408044678522;0.50323486328125;16.7999999575841;85;-3.45458984374999E-05;10 mA;
523.608044678017;0.5010986328125;16.9999999570791;86;-3.6163330078125E-05;10 mA;
523.808044677512;0.499298095703125;17.1999999565742;87;-3.63769531249999E-05;10 mA;
524.008044677007;0.497314453125;17.3999999560692;88;-3.6773681640625E-05;10 mA;
524.208044676502;0.495330810546875;17.5999999555643;89;-3.369140625E-05;10 mA;
524.408044675997;0.493377685546875;17.7999999550593;90;-3.59497070312501E-05;10 mA;
524.608044675492;0.491424560546875;17.9999999545544;91;-3.3538818359375E-05;10 mA;
524.808044674987;0.489501953125;18.1999999540494;92;-3.521728515625E-05;10 mA;
525.008044674482;0.48760986328125;18.3999999535445;93;-3.7506103515625E-05;10 mA;
525.208044673977;0.4857177734375;18.5999999530395;94;-3.4454345703125E-05;10 mA;
525.408044673472;0.483856201171875;18.7999999525346;95;-3.59191894531249E-05;10 mA;
525.608044672967;0.482025146484375;18.9999999520296;96;-3.619384765625E-05;10 mA;
525.808044672462;0.48016357421875;19.1999999515247;97;-3.460693359375E-05;10 mA;
526.008044671957;0.478363037109375;19.3999999510197;98;-3.9215087890625E-05;10 mA;
526.208044671452;0.4765625;19.5999999505148;99;-3.338623046875E-05;10 mA;
526.408044670947;0.47479248046875;19.7999999500098;100;-3.863525390625E-05;10 mA;
526.608044670442;0.472991943359375;19.9999999495049;101;-3.662109375E-05;10 mA;
526.808044669938;0.471221923828125;20.1999999489999;102;-3.5552978515625E-05;10 mA;
527.008044669433;0.469482421875;20.399999948495;103;-3.5736083984375E-05;10 mA;
527.208044668928;0.4677734375;20.59999994799;104;-3.71398925781249E-05;10 mA;
527.408044668423;0.466064453125;20.799999947485;105;-3.41796875E-05;10 mA;
527.608044667918;0.464385986328125;20.9999999469801;106;-3.62243652343749E-05;10 mA;
527.808044667413;0.462677001953125;21.1999999464751;107;-3.53393554687501E-05;10 mA;
528.008044666908;0.46099853515625;21.3999999459702;108;-3.8482666015625E-05;10 mA;
528.208044666403;0.4593505859375;21.5999999454652;109;-3.79333496093751E-05;10 mA;
528.408044665898;0.45770263671875;21.7999999449603;110;-3.436279296875E-05;10 mA;
528.608044665393;0.456085205078125;21.9999999444553;111;-3.765869140625E-05;10 mA;
528.808044664888;0.454437255859375;22.1999999439504;112;-3.46984863281249E-05;10 mA;
529.008044664383;0.452880859375;22.3999999434454;113;-3.7078857421875E-05;10 mA;
529.208044663878;0.4512939453125;22.5999999429405;114;-3.338623046875E-05;10 mA;
529.408044663373;0.44970703125;22.7999999424355;115;-3.68347167968749E-05;10 mA;
529.608044662868;0.448150634765625;22.9999999419306;116;-3.71398925781249E-05;10 mA;
529.808044662363;0.44659423828125;23.1999999414256;117;-3.4210205078125E-05;10 mA;
530.008044661858;0.44500732421875;23.3999999409207;118;-3.68347167968749E-05;10 mA;
530.208044661353;0.4434814453125;23.5999999404157;119;-3.62548828125001E-05;10 mA;
530.408044660848;0.441986083984375;23.7999999399108;120;-3.6346435546875E-05;10 mA;
530.608044660343;0.440460205078125;23.9999999394058;121;-3.6468505859375E-05;10 mA;
530.808044659839;0.43896484375;24.1999999389009;122;-3.56445312500001E-05;10 mA;
531.008044659334;0.437469482421875;24.3999999383959;123;-3.6468505859375E-05;10 mA;
531.208044658829;0.436004638671875;24.599999937891;124;-3.56445312500001E-05;10 mA;
531.408044658324;0.4345703125;24.799999937386;125;-3.387451171875E-05;10 mA;
531.608044657819;0.43310546875;24.9999999368811;126;-3.60717773437499E-05;10 mA;
531.808044657314;0.431671142578125;25.1999999363761;127;-3.67431640625E-05;10 mA;
532.008044656809;0.430267333984375;25.3999999358712;128;-3.42712402343751E-05;10 mA;
532.208044656304;0.4288330078125;25.5999999353662;129;-3.62243652343749E-05;10 mA;
532.408044655799;0.427459716796875;25.7999999348613;130;-3.7567138671875E-05;10 mA;
532.608044655294;0.426025390625;25.9999999343563;131;-3.53393554687501E-05;10 mA;
532.808044654789;0.424652099609375;26.1999999338514;132;-3.765869140625E-05;10 mA;
533.008044654284;0.423309326171875;26.3999999333464;133;-3.5552978515625E-05;10 mA;
533.208044653779;0.421966552734375;26.5999999328415;134;-3.68347167968749E-05;10 mA;
533.408044653274;0.420623779296875;26.7999999323365;135;-3.4637451171875E-05;10 mA;
533.608044652769;0.419281005859375;26.9999999318316;136;-3.6285400390625E-05;10 mA;
533.808044652264;0.417938232421875;27.1999999313266;137;-3.4149169921875E-05;10 mA;
534.008044651759;0.4166259765625;27.3999999308217;138;-3.51562499999999E-05;10 mA;
534.208044651254;0.415313720703125;27.5999999303167;139;-3.73229980468751E-05;10 mA;
534.408044650749;0.41400146484375;27.7999999298117;140;-3.5980224609375E-05;10 mA;
534.608044650244;0.412689208984375;27.9999999293068;141;-3.53393554687501E-05;10 mA;
534.808044649739;0.41143798828125;28.1999999288018;142;-3.436279296875E-05;10 mA;
535.008044649235;0.41015625;28.3999999282969;143;-3.72924804687499E-05;10 mA;
535.20804464873;0.408905029296875;28.5999999277919;144;-3.7811279296875E-05;10 mA;
535.408044648225;0.40765380859375;28.799999927287;145;-3.7689208984375E-05;10 mA;
535.60804464772;0.406402587890625;28.999999926782;146;-3.72924804687499E-05;10 mA;
535.808044647215;0.4051513671875;29.1999999262771;147;-3.631591796875E-05;10 mA;
536.00804464671;0.4039306640625;29.3999999257721;148;-3.753662109375E-05;10 mA;
536.208044646205;0.4027099609375;29.5999999252672;149;-3.51867675781251E-05;10 mA;
536.4080446457;0.4014892578125;29.7999999247622;150;-3.6895751953125E-05;10 mA;
536.608044645195;0.400299072265625;29.9999999242573;151;-3.680419921875E-05;10 mA;
536.80804464469;0.39910888671875;30.1999999237523;152;-3.4454345703125E-05;10 mA;
537.008044644185;0.39788818359375;30.3999999232474;153;-3.4454345703125E-05;10 mA;
537.20804464368;0.396697998046875;30.5999999227424;154;-3.61022949218751E-05;10 mA;
537.408044643175;0.395538330078125;30.7999999222375;155;-3.42407226562499E-05;10 mA;
537.60804464267;0.394378662109375;30.9999999217325;156;-3.7689208984375E-05;10 mA;
537.808044642165;0.39324951171875;31.1999999212276;157;-3.64990234375E-05;10 mA;
538.00804464166;0.39208984375;31.3999999207226;158;-3.5675048828125E-05;10 mA;
538.208044641155;0.390960693359375;31.5999999202177;159;-3.47290039062501E-05;10 mA;
538.40804464065;0.38983154296875;31.7999999197127;160;-3.61328125E-05;10 mA;
538.608044640145;0.388702392578125;31.9999999192078;161;-3.64990234375E-05;10 mA;
538.80804463964;0.3875732421875;32.1999999187028;162;-3.460693359375E-05;10 mA;
539.008044639136;0.386474609375;32.3999999181979;163;-3.39355468749999E-05;10 mA;
539.208044638631;0.3853759765625;32.5999999176929;164;-3.53088378906249E-05;10 mA;
539.408044638126;0.38427734375;32.799999917188;165;-3.5675048828125E-05;10 mA;
539.608044637621;0.3831787109375;32.999999916683;166;-3.61022949218751E-05;10 mA;
539.808044637116;0.382110595703125;33.1999999161781;167;-3.5552978515625E-05;10 mA;
540.008044636611;0.38104248046875;33.3999999156731;168;-3.765869140625E-05;10 mA;
540.208044636106;0.379974365234375;33.5999999151682;169;-3.63769531249999E-05;10 mA;
540.408044635601;0.37890625;33.7999999146632;170;-3.41186523437501E-05;10 mA;
540.608044635096;0.37786865234375;33.9999999141583;171;-3.4210205078125E-05;10 mA;
540.808044634591;0.376800537109375;34.1999999136533;172;-3.7200927734375E-05;10 mA;
541.008044634086;0.375762939453125;34.3999999131483;173;-3.57666015624999E-05;10 mA;
541.208044633581;0.374725341796875;34.5999999126434;174;-3.79028320312499E-05;10 mA;
541.408044633076;0.37371826171875;34.7999999121384;175;-3.6956787109375E-05;10 mA;
541.608044632571;0.372711181640625;34.9999999116335;176;-3.80554199218749E-05;10 mA;
541.808044632066;0.37164306640625;35.1999999111285;177;-3.50036621093749E-05;10 mA;
542.008044631561;0.370635986328125;35.3999999106236;178;-3.619384765625E-05;10 mA;
542.208044631056;0.36962890625;35.5999999101186;179;-3.64074707031251E-05;10 mA;
542.408044630551;0.368621826171875;35.7999999096137;180;-3.50341796875001E-05;10 mA;
542.608044630046;0.367645263671875;35.9999999091087;181;-3.765869140625E-05;10 mA;
542.808044629541;0.36663818359375;36.1999999086038;182;-3.46984863281249E-05;10 mA;
543.008044629036;0.365631103515625;36.3999999080988;183;-3.704833984375E-05;10 mA;
543.208044628532;0.3646240234375;36.5999999075939;184;-3.45458984374999E-05;10 mA;
543.408044628027;0.3636474609375;36.7999999070889;185;-3.40576171875E-05;10 mA;
543.608044627522;0.3626708984375;36.999999906584;186;-3.72924804687499E-05;10 mA;
543.808044627017;0.361724853515625;37.199999906079;187;-3.51562499999999E-05;10 mA;
544.008044626512;0.360748291015625;37.3999999055741;188;-3.47900390625E-05;10 mA;
544.208044626007;0.35980224609375;37.5999999050691;189;-3.4454345703125E-05;10 mA;
544.408044625502;0.358856201171875;37.7999999045642;190;-3.6041259765625E-05;10 mA;
544.608044624997;0.35791015625;37.9999999040592;191;-3.662109375E-05;10 mA;
544.808044624492;0.356964111328125;38.1999999035543;192;-3.67126464843751E-05;10 mA;
545.008044623987;0.35601806640625;38.3999999030493;193;-3.619384765625E-05;10 mA;
545.208044623482;0.3551025390625;38.5999999025444;194;-3.631591796875E-05;10 mA;
545.408044622977;0.35418701171875;38.7999999020394;195;-3.60107421875E-05;10 mA;
545.608044622472;0.353240966796875;38.9999999015345;196;-3.6285400390625E-05;10 mA;
545.808044621967;0.352294921875;39.1999999010295;197;-3.643798828125E-05;10 mA;
546.008044621462;0.35137939453125;39.3999999005246;198;-3.60717773437499E-05;10 mA;
546.208044620957;0.3504638671875;39.5999999000196;199;-3.6346435546875E-05;10 mA;
546.408044620452;0.349578857421875;39.7999998995147;200;-3.63769531249999E-05;10 mA;
546.608044619947;0.348663330078125;39.9999998990097;201;-3.64074707031251E-05;10 mA;
546.808044619442;0.3477783203125;40.1999998985048;202;-3.60717773437499E-05;10 mA;
547.008044618937;0.34686279296875;40.3999998979998;203;-3.6285400390625E-05;10 mA;
547.208044618432;0.345977783203125;40.5999998974949;204;-3.619384765625E-05;10 mA;
547.408044617928;0.3450927734375;40.7999998969899;205;-3.662109375E-05;10 mA;
547.608044617423;0.34423828125;40.999999896485;206;-3.643798828125E-05;10 mA;
547.808044616918;0.343353271484375;41.19999989598;207;-3.631591796875E-05;10 mA;
548.008044616413;0.342498779296875;41.399999895475;208;-3.64074707031251E-05;10 mA;
548.208044615908;0.34161376953125;41.5999998949701;209;-3.6163330078125E-05;10 mA;
548.408044615403;0.340728759765625;41.7999998944651;210;-3.61022949218751E-05;10 mA;
548.608044614898;0.339874267578125;41.9999998939602;211;-3.6468505859375E-05;10 mA;
548.808044614393;0.3389892578125;42.1999998934552;212;-3.62548828125001E-05;10 mA;
549.008044613888;0.338134765625;42.3999998929503;213;-3.6163330078125E-05;10 mA;
549.208044613383;0.3372802734375;42.5999998924453;214;-3.64990234375E-05;10 mA;
549.408044612878;0.33642578125;42.7999998919404;215;-3.60107421875E-05;10 mA;
549.608044612373;0.335540771484375;42.9999998914354;216;-3.619384765625E-05;10 mA;
549.808044611868;0.334686279296875;43.1999998909305;217;-3.6346435546875E-05;10 mA;
550.008044611363;0.333831787109375;43.3999998904255;218;-3.6346435546875E-05;10 mA;
550.208044610858;0.332977294921875;43.5999998899206;219;-3.60107421875E-05;10 mA;
550.408044610353;0.3321533203125;43.7999998894156;220;-3.643798828125E-05;10 mA;
550.608044609848;0.331268310546875;43.9999998889107;221;-3.62548828125001E-05;10 mA;
550.808044609343;0.330413818359375;44.1999998884057;222;-3.61022949218751E-05;10 mA;
551.008044608838;0.32958984375;44.3999998879008;223;-3.6041259765625E-05;10 mA;
551.208044608333;0.3287353515625;44.5999998873958;224;-3.643798828125E-05;10 mA;
551.408044607829;0.327880859375;44.7999998868909;225;-3.60717773437499E-05;10 mA;
551.608044607324;0.3270263671875;44.9999998863859;226;-3.62243652343749E-05;10 mA;
551.808044606819;0.326202392578125;45.199999885881;227;-3.631591796875E-05;10 mA;
552.008044606314;0.32537841796875;45.399999885376;228;-3.6346435546875E-05;10 mA;
552.208044605809;0.32452392578125;45.5999998848711;229;-3.6163330078125E-05;10 mA;
552.408044605304;0.323699951171875;45.7999998843661;230;-3.631591796875E-05;10 mA;
552.608044604799;0.3228759765625;45.9999998838612;231;-3.643798828125E-05;10 mA;
552.808044604294;0.322052001953125;46.1999998833562;232;-3.6041259765625E-05;10 mA;
553.008044603789;0.32122802734375;46.3999998828513;233;-3.64990234375E-05;10 mA;
553.208044603284;0.320404052734375;46.5999998823463;234;-3.65295410156249E-05;10 mA;
553.408044602779;0.319580078125;46.7999998818414;235;-3.60107421875E-05;10 mA;
553.608044602274;0.318756103515625;46.9999998813364;236;-3.62548828125001E-05;10 mA;
553.808044601769;0.317962646484375;47.1999998808315;237;-3.62548828125001E-05;10 mA;
554.008044601264;0.317138671875;47.3999998803265;238;-3.631591796875E-05;10 mA;
554.208044600759;0.316314697265625;47.5999998798216;239;-3.6468505859375E-05;10 mA;
554.408044600254;0.315521240234375;47.7999998793166;240;-3.619384765625E-05;10 mA;
554.608044599749;0.314727783203125;47.9999998788116;241;-3.631591796875E-05;10 mA;
554.808044599244;0.313873291015625;48.1999998783067;242;-3.6651611328125E-05;10 mA;
555.008044598739;0.313079833984375;48.3999998778017;243;-3.6163330078125E-05;10 mA;
555.208044598234;0.312286376953125;48.5999998772968;244;-3.631591796875E-05;10 mA;
555.408044597729;0.311492919921875;48.7999998767918;245;-3.60717773437499E-05;10 mA;
555.608044597225;0.3106689453125;48.9999998762869;246;-3.62548828125001E-05;10 mA;
555.80804459672;0.309844970703125;49.1999998757819;247;-3.62548828125001E-05;10 mA;
556.008044596215;0.309051513671875;49.399999875277;248;-3.60717773437499E-05;10 mA;
556.20804459571;0.3082275390625;49.599999874772;249;-3.6468505859375E-05;10 mA;
556.408044595205;0.307403564453125;49.7999998742671;250;-3.643798828125E-05;10 mA;
556.6080445947;0.306640625;49.9999998737621;251;-3.6590576171875E-05;10 mA;
556.808044594195;0.30584716796875;50.1999998732572;252;-3.6468505859375E-05;10 mA;
557.00804459369;0.305023193359375;50.3999998727522;253;-3.64074707031251E-05;10 mA;
557.208044593185;0.304229736328125;50.5999998722473;254;-3.62243652343749E-05;10 mA;
557.40804459268;0.30340576171875;50.7999998717423;255;-3.6346435546875E-05;10 mA;
557.608044592175;0.3026123046875;50.9999998712374;256;-3.6163330078125E-05;10 mA;
557.80804459167;0.30181884765625;51.1999998707324;257;-3.66821289062499E-05;10 mA;
558.008044591165;0.301025390625;51.3999998702275;258;-3.6285400390625E-05;10 mA;
558.20804459066;0.300201416015625;51.5999998697225;259;-3.6651611328125E-05;10 mA;
558.408044590155;0.299407958984375;51.7999998692176;260;-3.62548828125001E-05;10 mA;
558.60804458965;0.298614501953125;51.9999998687126;261;-3.6285400390625E-05;10 mA;
558.808044589145;0.297821044921875;52.1999998682077;262;-3.5888671875E-05;10 mA;
559.00804458864;0.297027587890625;52.3999998677027;263;-3.6346435546875E-05;10 mA;
559.208044588135;0.296234130859375;52.5999998671978;264;-3.64990234375E-05;10 mA;
559.40804458763;0.295440673828125;52.7999998666928;265;-3.60717773437499E-05;10 mA;
559.608044587126;0.294647216796875;52.9999998661879;266;-3.64990234375E-05;10 mA;
559.808044586621;0.2938232421875;53.1999998656829;267;-3.64074707031251E-05;10 mA;
560.008044586116;0.29302978515625;53.399999865178;268;-3.64074707031251E-05;10 mA;
560.208044585611;0.292236328125;53.599999864673;269;-3.63769531249999E-05;10 mA;
560.408044585106;0.291412353515625;53.7999998641681;270;-3.61022949218751E-05;10 mA;
560.608044584601;0.29058837890625;53.9999998636631;271;-3.6285400390625E-05;10 mA;
560.808044584096;0.289794921875;54.1999998631582;272;-3.6346435546875E-05;10 mA;
561.008044583591;0.288970947265625;54.3999998626532;273;-3.64990234375E-05;10 mA;
561.208044583086;0.288177490234375;54.5999998621483;274;-3.61328125E-05;10 mA;
561.408044582581;0.287384033203125;54.7999998616433;275;-3.631591796875E-05;10 mA;
561.608044582076;0.286590576171875;54.9999998611383;276;-3.6163330078125E-05;10 mA;
561.808044581571;0.2857666015625;55.1999998606334;277;-3.643798828125E-05;10 mA;
562.008044581066;0.28497314453125;55.3999998601284;278;-3.66821289062499E-05;10 mA;
562.208044580561;0.284149169921875;55.5999998596235;279;-3.62548828125001E-05;10 mA;
562.408044580056;0.283355712890625;55.7999998591185;280;-3.63769531249999E-05;10 mA;
562.608044579551;0.28253173828125;55.9999998586136;281;-3.60717773437499E-05;10 mA;
562.808044579046;0.28173828125;56.1999998581086;282;-3.64074707031251E-05;10 mA;
563.008044578541;0.28094482421875;56.3999998576037;283;-3.67126464843751E-05;10 mA;
563.208044578036;0.2801513671875;56.5999998570987;284;-3.64990234375E-05;10 mA;
563.408044577531;0.279296875;56.7999998565938;285;-3.68347167968749E-05;10 mA;
563.608044577026;0.27850341796875;56.9999998560888;286;-3.643798828125E-05;10 mA;
563.808044576522;0.2777099609375;57.1999998555839;287;-3.619384765625E-05;10 mA;
564.008044576017;0.276947021484375;57.3999998550789;288;-3.643798828125E-05;10 mA;
564.208044575512;0.276153564453125;57.599999854574;289;-3.62548828125001E-05;10 mA;
564.408044575007;0.27532958984375;57.799999854069;290;-3.6163330078125E-05;10 mA;
564.608044574502;0.2745361328125;57.9999998535641;291;-3.631591796875E-05;10 mA;
564.808044573997;0.273712158203125;58.1999998530591;292;-3.64990234375E-05;10 mA;
565.008044573492;0.272918701171875;58.3999998525542;293;-3.6468505859375E-05;10 mA;
565.208044572987;0.272125244140625;58.5999998520492;294;-3.6468505859375E-05;10 mA;
565.408044572482;0.27130126953125;58.7999998515443;295;-3.6163330078125E-05;10 mA;
565.608044571977;0.270477294921875;58.9999998510393;296;-3.64990234375E-05;10 mA;
565.808044571472;0.269683837890625;59.1999998505344;297;-3.619384765625E-05;10 mA;
566.008044570967;0.26885986328125;59.3999998500294;298;-3.63769531249999E-05;10 mA;
566.208044570462;0.26806640625;59.5999998495245;299;-3.619384765625E-05;10 mA;
566.408044569957;0.26727294921875;59.7999998490195;300;-3.5888671875E-05;10 mA;
566.608044569452;0.2664794921875;59.9999998485146;301;-3.6346435546875E-05;10 mA;
566.808044568947;0.26568603515625;60.1999998480096;302;-3.62548828125001E-05;10 mA;
567.008044568442;0.264892578125;60.3999998475047;303;-3.643798828125E-05;10 mA;
567.208044567937;0.26409912109375;60.5999998469997;304;-3.61328125E-05;10 mA;
567.408044567432;0.2633056640625;60.7999998464948;305;-3.662109375E-05;10 mA;
567.608044566927;0.262481689453125;60.9999998459898;306;-3.66821289062499E-05;10 mA;
567.808044566422;0.261688232421875;61.1999998454849;307;-3.61022949218751E-05;10 mA;
568.008044565918;0.260894775390625;61.3999998449799;308;-3.62548828125001E-05;10 mA;
568.208044565413;0.260101318359375;61.599999844475;309;-3.62243652343749E-05;10 mA;
568.408044564908;0.25927734375;61.79999984397;310;-3.6285400390625E-05;10 mA;
568.608044564403;0.25848388671875;61.999999843465;311;-3.662109375E-05;10 mA;
568.808044563898;0.2576904296875;62.1999998429601;312;-3.6163330078125E-05;10 mA;
569.008044563393;0.256866455078125;62.3999998424551;313;-3.63769531249999E-05;10 mA;
569.208044562888;0.256072998046875;62.5999998419502;314;-3.6590576171875E-05;10 mA;
569.408044562383;0.2552490234375;62.7999998414452;315;-3.61328125E-05;10 mA;
569.608044561878;0.25445556640625;62.9999998409403;316;-3.631591796875E-05;10 mA;
569.808044561373;0.253631591796875;63.1999998404353;317;-3.5980224609375E-05;10 mA;
570.008044560868;0.252838134765625;63.3999998399304;318;-3.62548828125001E-05;10 mA;
570.208044560363;0.252044677734375;63.5999998394254;319;-3.6468505859375E-05;10 mA;
570.408044559858;0.251251220703125;63.7999998389205;320;-3.6346435546875E-05;10 mA;
570.608044559353;0.25042724609375;63.9999998384155;321;-3.6773681640625E-05;10 mA;
570.808044558848;0.2496337890625;64.1999998379106;322;-3.643798828125E-05;10 mA;
571.008044558343;0.248809814453125;64.3999998374056;323;-3.6346435546875E-05;10 mA;
571.208044557838;0.248016357421875;64.5999998369007;324;-3.63769531249999E-05;10 mA;
571.408044557333;0.247222900390625;64.7999998363957;325;-3.6346435546875E-05;10 mA;
571.608044556828;0.24639892578125;64.9999998358908;326;-3.6651611328125E-05;10 mA;
571.808044556323;0.245574951171875;65.1999998353858;327;-3.62243652343749E-05;10 mA;
572.008044555819;0.244781494140625;65.3999998348809;328;-3.61022949218751E-05;10 mA;
572.208044555314;0.24395751953125;65.5999998343759;329;-3.619384765625E-05;10 mA;
572.408044554809;0.2431640625;65.799999833871;330;-3.60107421875E-05;10 mA;
572.608044554304;0.242340087890625;65.999999833366;331;-3.582763671875E-05;10 mA;
572.808044553799;0.241546630859375;66.1999998328611;332;-3.61328125E-05;10 mA;
573.008044553294;0.24072265625;66.3999998323561;333;-3.64074707031251E-05;10 mA;
573.208044552789;0.23992919921875;66.5999998318512;334;-3.6346435546875E-05;10 mA;
573.408044552284;0.239105224609375;66.7999998313462;335;-3.6651611328125E-05;10 mA;
573.608044551779;0.23834228515625;66.9999998308413;336;-3.65295410156249E-05;10 mA;
573.808044551274;0.237518310546875;67.1999998303363;337;-3.57971191406251E-05;10 mA;
574.008044550769;0.236724853515625;67.3999998298314;338;-3.61328125E-05;10 mA;
574.208044550264;0.235931396484375;67.5999998293264;339;-3.61328125E-05;10 mA;
574.408044549759;0.235137939453125;67.7999998288215;340;-3.67126464843751E-05;10 mA;
574.608044549254;0.234344482421875;67.9999998283165;341;-3.64990234375E-05;10 mA;
574.808044548749;0.233551025390625;68.1999998278116;342;-3.6590576171875E-05;10 mA;
575.008044548244;0.23272705078125;68.3999998273066;343;-3.6346435546875E-05;10 mA;
575.208044547739;0.231964111328125;68.5999998268016;344;-3.643798828125E-05;10 mA;
575.408044547234;0.23114013671875;68.7999998262967;345;-3.662109375E-05;10 mA;
575.608044546729;0.2303466796875;68.9999998257917;346;-3.6285400390625E-05;10 mA;
575.808044546224;0.229522705078125;69.1999998252868;347;-3.63769531249999E-05;10 mA;
576.008044545719;0.22869873046875;69.3999998247818;348;-3.6468505859375E-05;10 mA;
576.208044545215;0.2279052734375;69.5999998242769;349;-3.60717773437499E-05;10 mA;
576.40804454471;0.227081298828125;69.7999998237719;350;-3.6346435546875E-05;10 mA;
576.608044544205;0.226287841796875;69.999999823267;351;-3.61022949218751E-05;10 mA;
576.8080445437;0.2254638671875;70.199999822762;352;-3.6163330078125E-05;10 mA;
577.008044543195;0.22467041015625;70.3999998222571;353;-3.62548828125001E-05;10 mA;
577.20804454269;0.223846435546875;70.5999998217521;354;-3.64990234375E-05;10 mA;
577.408044542185;0.223052978515625;70.7999998212472;355;-3.643798828125E-05;10 mA;
577.60804454168;0.222259521484375;70.9999998207422;356;-3.61022949218751E-05;10 mA;
577.808044541175;0.221435546875;71.1999998202373;357;-3.63769531249999E-05;10 mA;
578.00804454067;0.22064208984375;71.3999998197323;358;-3.62243652343749E-05;10 mA;
578.208044540165;0.2198486328125;71.5999998192274;359;-3.63769531249999E-05;10 mA;
578.40804453966;0.219024658203125;71.7999998187224;360;-3.619384765625E-05;10 mA;
578.608044539155;0.218231201171875;71.9999998182175;361;-3.6346435546875E-05;10 mA;
578.80804453865;0.217437744140625;72.1999998177125;362;-3.61022949218751E-05;10 mA;
579.008044538145;0.2166748046875;72.3999998172076;363;-3.643798828125E-05;10 mA;
579.20804453764;0.21588134765625;72.5999998167026;364;-3.6468505859375E-05;10 mA;
579.408044537135;0.215118408203125;72.7999998161977;365;-3.631591796875E-05;10 mA;
579.60804453663;0.214324951171875;72.9999998156927;366;-3.62243652343749E-05;10 mA;
579.808044536125;0.213531494140625;73.1999998151878;367;-3.65295410156249E-05;10 mA;
580.00804453562;0.2127685546875;73.3999998146828;368;-3.6285400390625E-05;10 mA;
580.208044535116;0.212005615234375;73.5999998141779;369;-3.5980224609375E-05;10 mA;
580.408044534611;0.211212158203125;73.7999998136729;370;-3.62548828125001E-05;10 mA;
580.608044534106;0.210418701171875;73.999999813168;371;-3.65295410156249E-05;10 mA;
580.808044533601;0.20965576171875;74.199999812663;372;-3.59497070312501E-05;10 mA;
581.008044533096;0.2088623046875;74.3999998121581;373;-3.662109375E-05;10 mA;
581.208044532591;0.208099365234375;74.5999998116531;374;-3.65295410156249E-05;10 mA;
581.408044532086;0.207305908203125;74.7999998111482;375;-3.6346435546875E-05;10 mA;
581.608044531581;0.206512451171875;74.9999998106432;376;-3.6468505859375E-05;10 mA;
581.808044531076;0.205718994140625;75.1999998101383;377;-3.6163330078125E-05;10 mA;
582.008044530571;0.204925537109375;75.3999998096333;378;-3.6285400390625E-05;10 mA;
582.208044530066;0.204132080078125;75.5999998091283;379;-3.6590576171875E-05;10 mA;
582.408044529561;0.203338623046875;75.7999998086234;380;-3.619384765625E-05;10 mA;
582.608044529056;0.202545166015625;75.9999998081184;381;-3.65600585937501E-05;10 mA;
582.808044528551;0.201751708984375;76.1999998076135;382;-3.662109375E-05;10 mA;
583.008044528046;0.200958251953125;76.3999998071085;383;-3.619384765625E-05;10 mA;
583.208044527541;0.20013427734375;76.5999998066036;384;-3.65295410156249E-05;10 mA;
583.408044527036;0.1993408203125;76.7999998060986;385;-3.662109375E-05;10 mA;
583.608044526531;0.19854736328125;76.9999998055937;386;-3.61328125E-05;10 mA;
583.808044526026;0.19775390625;77.1999998050887;387;-3.6163330078125E-05;10 mA;
584.008044525521;0.196929931640625;77.3999998045838;388;-3.6468505859375E-05;10 mA;
584.208044525016;0.196136474609375;77.5999998040788;389;-3.57971191406251E-05;10 mA;
584.408044524512;0.1953125;77.7999998035739;390;-3.662109375E-05;10 mA;
584.608044524007;0.19451904296875;77.9999998030689;391;-3.631591796875E-05;10 mA;
584.808044523502;0.193756103515625;78.199999802564;392;-3.65295410156249E-05;10 mA;
585.008044522997;0.192962646484375;78.399999802059;393;-3.6285400390625E-05;10 mA;
585.208044522492;0.192138671875;78.5999998015541;394;-3.66821289062499E-05;10 mA;
585.408044521987;0.191314697265625;78.7999998010491;395;-3.619384765625E-05;10 mA;
585.608044521482;0.190521240234375;78.9999998005442;396;-3.59497070312501E-05;10 mA;
585.808044520977;0.189697265625;79.1999998000392;397;-3.631591796875E-05;10 mA;
586.008044520472;0.18890380859375;79.3999997995343;398;-3.631591796875E-05;10 mA;
586.208044519967;0.1881103515625;79.5999997990293;399;-3.63769531249999E-05;10 mA;
586.408044519462;0.18731689453125;79.7999997985244;400;-3.61022949218751E-05;10 mA;
586.608044518957;0.1865234375;79.9999997980194;401;-3.64990234375E-05;10 mA;
586.808044518452;0.18572998046875;80.1999997975145;402;-3.62548828125001E-05;10 mA;
587.008044517947;0.1849365234375;80.3999997970095;403;-3.643798828125E-05;10 mA;
587.208044517442;0.18414306640625;80.5999997965046;404;-3.631591796875E-05;10 mA;
587.408044516937;0.183349609375;80.7999997959996;405;-3.62243652343749E-05;10 mA;
587.608044516432;0.18255615234375;80.9999997954947;406;-3.643798828125E-05;10 mA;
587.808044515927;0.1817626953125;81.1999997949897;407;-3.6468505859375E-05;10 mA;
588.008044515422;0.18096923828125;81.3999997944848;408;-3.64074707031251E-05;10 mA;
588.208044514917;0.18017578125;81.5999997939798;409;-3.62243652343749E-05;10 mA;
588.408044514412;0.179351806640625;81.7999997934749;410;-3.631591796875E-05;10 mA;
588.608044513908;0.178558349609375;81.9999997929699;411;-3.64074707031251E-05;10 mA;
588.808044513403;0.177734375;82.199999792465;412;-3.64990234375E-05;10 mA;
589.008044512898;0.17694091796875;82.39999979196;413;-3.64074707031251E-05;10 mA;
589.208044512393;0.1761474609375;82.599999791455;414;-3.6285400390625E-05;10 mA;
589.408044511888;0.17535400390625;82.7999997909501;415;-3.68652343750001E-05;10 mA;
589.608044511383;0.17449951171875;82.9999997904451;416;-3.62243652343749E-05;10 mA;
589.808044510878;0.173675537109375;83.1999997899402;417;-3.64074707031251E-05;10 mA;
590.008044510373;0.172882080078125;83.3999997894352;418;-3.631591796875E-05;10 mA;
590.208044509868;0.17205810546875;83.5999997889303;419;-3.643798828125E-05;10 mA;
590.408044509363;0.1712646484375;83.7999997884253;420;-3.6346435546875E-05;10 mA;
590.608044508858;0.17047119140625;83.9999997879204;421;-3.619384765625E-05;10 mA;
590.808044508353;0.169647216796875;84.1999997874154;422;-3.61022949218751E-05;10 mA;
591.008044507848;0.1688232421875;84.3999997869105;423;-3.64990234375E-05;10 mA;
591.208044507343;0.167999267578125;84.5999997864055;424;-3.5888671875E-05;10 mA;
591.408044506838;0.16717529296875;84.7999997859006;425;-3.65600585937501E-05;10 mA;
591.608044506333;0.1663818359375;84.9999997853956;426;-3.6651611328125E-05;10 mA;
591.808044505828;0.165557861328125;85.1999997848907;427;-3.6468505859375E-05;10 mA;
592.008044505323;0.164764404296875;85.3999997843857;428;-3.60717773437499E-05;10 mA;
592.208044504818;0.163909912109375;85.5999997838808;429;-3.67126464843751E-05;10 mA;
592.408044504313;0.163116455078125;85.7999997833758;430;-3.62548828125001E-05;10 mA;
592.608044503809;0.162261962890625;85.9999997828709;431;-3.6346435546875E-05;10 mA;
592.808044503304;0.16143798828125;86.1999997823659;432;-3.62243652343749E-05;10 mA;
593.008044502799;0.16064453125;86.399999781861;433;-3.6468505859375E-05;10 mA;
593.208044502294;0.159820556640625;86.599999781356;434;-3.65295410156249E-05;10 mA;
593.408044501789;0.159027099609375;86.7999997808511;435;-3.6590576171875E-05;10 mA;
593.608044501284;0.158203125;86.9999997803461;436;-3.6773681640625E-05;10 mA;
593.808044500779;0.157379150390625;87.1999997798412;437;-3.643798828125E-05;10 mA;
594.008044500274;0.156585693359375;87.3999997793362;438;-3.6285400390625E-05;10 mA;
594.208044499769;0.155792236328125;87.5999997788313;439;-3.65600585937501E-05;10 mA;
594.408044499264;0.15496826171875;87.7999997783263;440;-3.662109375E-05;10 mA;
594.608044498759;0.1541748046875;87.9999997778214;441;-3.6346435546875E-05;10 mA;
594.808044498254;0.153350830078125;88.1999997773164;442;-3.67126464843751E-05;10 mA;
595.008044497749;0.15252685546875;88.3999997768115;443;-3.6346435546875E-05;10 mA;
595.208044497244;0.151702880859375;88.5999997763065;444;-3.619384765625E-05;10 mA;
595.408044496739;0.150909423828125;88.7999997758016;445;-3.6590576171875E-05;10 mA;
595.608044496234;0.15008544921875;88.9999997752966;446;-3.65600585937501E-05;10 mA;
595.808044495729;0.1492919921875;89.1999997747916;447;-3.64990234375E-05;10 mA;
596.008044495224;0.148468017578125;89.3999997742867;448;-3.61022949218751E-05;10 mA;
596.208044494719;0.14764404296875;89.5999997737817;449;-3.60717773437499E-05;10 mA;
596.408044494214;0.1468505859375;89.7999997732768;450;-3.60717773437499E-05;10 mA;
596.608044493709;0.14605712890625;89.9999997727718;451;-3.67126464843751E-05;10 mA;
596.808044493205;0.14520263671875;90.1999997722669;452;-3.67126464843751E-05;10 mA;
597.0080444927;0.1444091796875;90.3999997717619;453;-3.6651611328125E-05;10 mA;
597.208044492195;0.14361572265625;90.599999771257;454;-3.65295410156249E-05;10 mA;
597.40804449169;0.142791748046875;90.799999770752;455;-3.63769531249999E-05;10 mA;
597.608044491185;0.14202880859375;90.9999997702471;456;-3.5888671875E-05;10 mA;
597.80804449068;0.141204833984375;91.1999997697421;457;-3.64074707031251E-05;10 mA;
598.008044490175;0.140411376953125;91.3999997692372;458;-3.6590576171875E-05;10 mA;
598.20804448967;0.139617919921875;91.5999997687322;459;-3.63769531249999E-05;10 mA;
598.408044489165;0.1387939453125;91.7999997682273;460;-3.6651611328125E-05;10 mA;
598.60804448866;0.137969970703125;91.9999997677223;461;-3.65295410156249E-05;10 mA;
598.808044488155;0.137176513671875;92.1999997672174;462;-3.6163330078125E-05;10 mA;
599.00804448765;0.1363525390625;92.3999997667124;463;-3.61328125E-05;10 mA;
599.208044487145;0.13555908203125;92.5999997662075;464;-3.65600585937501E-05;10 mA;
599.40804448664;0.134765625;92.7999997657025;465;-3.65600585937501E-05;10 mA;
599.608044486135;0.13397216796875;92.9999997651976;466;-3.60717773437499E-05;10 mA;
599.80804448563;0.133148193359375;93.1999997646926;467;-3.63769531249999E-05;10 mA;
600.008044485125;0.13238525390625;93.3999997641877;468;-3.6590576171875E-05;10 mA;
600.20804448462;0.131561279296875;93.5999997636827;469;-3.6163330078125E-05;10 mA;
600.408044484115;0.1307373046875;93.7999997631778;470;-3.65600585937501E-05;10 mA;
600.60804448361;0.129974365234375;93.9999997626728;471;-3.619384765625E-05;10 mA;
600.808044483106;0.129180908203125;94.1999997621679;472;-3.63769531249999E-05;10 mA;
601.008044482601;0.128387451171875;94.3999997616629;473;-3.66821289062499E-05;10 mA;
601.208044482096;0.1275634765625;94.599999761158;474;-3.6285400390625E-05;10 mA;
601.408044481591;0.126800537109375;94.799999760653;475;-3.64074707031251E-05;10 mA;
601.608044481086;0.1259765625;94.9999997601481;476;-3.631591796875E-05;10 mA;
601.808044480581;0.12518310546875;95.1999997596431;477;-3.631591796875E-05;10 mA;
602.008044480076;0.1243896484375;95.3999997591382;478;-3.61328125E-05;10 mA;
602.208044479571;0.12359619140625;95.5999997586332;479;-3.643798828125E-05;10 mA;
602.408044479066;0.122802734375;95.7999997581283;480;-3.619384765625E-05;10 mA;
602.608044478561;0.122039794921875;95.9999997576233;481;-3.67126464843751E-05;10 mA;
602.808044478056;0.121246337890625;96.1999997571183;482;-3.6346435546875E-05;10 mA;
603.008044477551;0.120452880859375;96.3999997566134;483;-3.64074707031251E-05;10 mA;
603.208044477046;0.119659423828125;96.5999997561084;484;-3.65600585937501E-05;10 mA;
603.408044476541;0.118896484375;96.7999997556035;485;-3.662109375E-05;10 mA;
603.608044476036;0.11810302734375;96.9999997550985;486;-3.6346435546875E-05;10 mA;
603.808044475531;0.1173095703125;97.1999997545936;487;-3.631591796875E-05;10 mA;
604.008044475026;0.11651611328125;97.3999997540886;488;-3.6590576171875E-05;10 mA;
604.208044474521;0.11572265625;97.5999997535837;489;-3.6346435546875E-05;10 mA;
604.408044474016;0.114959716796875;97.7999997530787;490;-3.66821289062499E-05;10 mA;
604.608044473511;0.114166259765625;97.9999997525738;491;-3.643798828125E-05;10 mA;
604.808044473006;0.113372802734375;98.1999997520688;492;-3.662109375E-05;10 mA;
605.008044472502;0.112579345703125;98.3999997515639;493;-3.62548828125001E-05;10 mA;
605.208044471997;0.11181640625;98.5999997510589;494;-3.619384765625E-05;10 mA;
605.408044471492;0.11102294921875;98.799999750554;495;-3.6590576171875E-05;10 mA;
605.608044470987;0.11029052734375;98.999999750049;496;-3.6346435546875E-05;10 mA;
605.808044470482;0.109527587890625;99.1999997495441;497;-3.6468505859375E-05;10 mA;
606.008044469977;0.1087646484375;99.3999997490391;498;-3.631591796875E-05;10 mA;
606.208044469472;0.10797119140625;99.5999997485342;499;-3.6285400390625E-05;10 mA;
606.408044468967;0.107208251953125;99.7999997480292;500;-3.65295410156249E-05;10 mA;
606.608044468462;0.1064453125;99.9999997475243;501;-3.65295410156249E-05;10 mA;
606.808044467957;0.105682373046875;100.199999747019;502;-3.662109375E-05;10 mA;
607.008044467452;0.10491943359375;100.399999746514;503;-3.64074707031251E-05;10 mA;
607.208044466947;0.1041259765625;100.599999746009;504;-3.64074707031251E-05;10 mA;
607.408044466442;0.1033935546875;100.799999745504;505;-3.65295410156249E-05;10 mA;
607.608044465937;0.10260009765625;100.999999745;506;-3.70178222656251E-05;10 mA;
607.808044465432;0.10186767578125;101.199999744495;507;-3.643798828125E-05;10 mA;
608.008044464927;0.101104736328125;101.39999974399;508;-3.62548828125001E-05;10 mA;
608.208044464422;0.100311279296875;101.599999743485;509;-3.65295410156249E-05;10 mA;
608.408044463917;0.099578857421875;101.79999974298;510;-3.643798828125E-05;10 mA;
608.608044463412;0.09881591796875;101.999999742475;511;-3.65295410156249E-05;10 mA;
608.808044462907;0.098052978515625;102.19999974197;512;-3.64074707031251E-05;10 mA;
609.008044462402;0.097320556640625;102.399999741465;513;-3.643798828125E-05;10 mA;
609.208044461898;0.0965576171875;102.59999974096;514;-3.619384765625E-05;10 mA;
609.408044461393;0.0958251953125;102.799999740455;515;-3.67431640625E-05;10 mA;
609.608044460888;0.095062255859375;102.99999973995;516;-3.61022949218751E-05;10 mA;
609.808044460383;0.094329833984375;103.199999739445;517;-3.60717773437499E-05;10 mA;
610.008044459878;0.09356689453125;103.39999973894;518;-3.63769531249999E-05;10 mA;
610.208044459373;0.092803955078125;103.599999738435;519;-3.662109375E-05;10 mA;
610.408044458868;0.092071533203125;103.79999973793;520;-3.631591796875E-05;10 mA;
610.608044458363;0.091339111328125;103.999999737425;521;-3.6346435546875E-05;10 mA;
610.808044457858;0.090606689453125;104.19999973692;522;-3.64990234375E-05;10 mA;
611.008044457353;0.089874267578125;104.399999736415;523;-3.631591796875E-05;10 mA;
611.208044456848;0.089141845703125;104.59999973591;524;-3.62243652343749E-05;10 mA;
611.408044456343;0.08843994140625;104.799999735405;525;-3.62548828125001E-05;10 mA;
611.608044455838;0.08770751953125;104.9999997349;526;-3.6468505859375E-05;10 mA;
611.808044455333;0.087005615234375;105.199999734396;527;-3.64990234375E-05;10 mA;
612.008044454828;0.086273193359375;105.399999733891;528;-3.6773681640625E-05;10 mA;
612.208044454323;0.0855712890625;105.599999733386;529;-3.65295410156249E-05;10 mA;
612.408044453818;0.0848388671875;105.799999732881;530;-3.6651611328125E-05;10 mA;
612.608044453313;0.0841064453125;105.999999732376;531;-3.6468505859375E-05;10 mA;
612.808044452808;0.083404541015625;106.199999731871;532;-3.62243652343749E-05;10 mA;
613.008044452303;0.0826416015625;106.399999731366;533;-3.6346435546875E-05;10 mA;
613.208044451799;0.081939697265625;106.599999730861;534;-3.62548828125001E-05;10 mA;
613.408044451294;0.081207275390625;106.799999730356;535;-3.643798828125E-05;10 mA;
613.608044450789;0.08050537109375;106.999999729851;536;-3.6590576171875E-05;10 mA;
613.808044450284;0.07977294921875;107.199999729346;537;-3.60717773437499E-05;10 mA;
614.008044449779;0.07904052734375;107.399999728841;538;-3.6346435546875E-05;10 mA;
614.208044449274;0.078338623046875;107.599999728336;539;-3.63769531249999E-05;10 mA;
614.408044448769;0.077606201171875;107.799999727831;540;-3.62243652343749E-05;10 mA;
614.608044448264;0.076873779296875;107.999999727326;541;-3.64074707031251E-05;10 mA;
614.808044447759;0.076171875;108.199999726821;542;-3.60717773437499E-05;10 mA;
615.008044447254;0.075408935546875;108.399999726316;543;-3.64990234375E-05;10 mA;
615.208044446749;0.07470703125;108.599999725811;544;-3.643798828125E-05;10 mA;
615.408044446244;0.07403564453125;108.799999725306;545;-3.6651611328125E-05;10 mA;
615.608044445739;0.0733642578125;108.999999724801;546;-3.6285400390625E-05;10 mA;
615.808044445234;0.0726318359375;109.199999724297;547;-3.6346435546875E-05;10 mA;
616.008044444729;0.071929931640625;109.399999723792;548;-3.6285400390625E-05;10 mA;
616.208044444224;0.071258544921875;109.599999723287;549;-3.67126464843751E-05;10 mA;
616.408044443719;0.070556640625;109.799999722782;550;-3.61328125E-05;10 mA;
616.608044443214;0.069854736328125;109.999999722277;551;-3.643798828125E-05;10 mA;
616.808044442709;0.06915283203125;110.199999721772;552;-3.62548828125001E-05;10 mA;
617.008044442204;0.068450927734375;110.399999721267;553;-3.67431640625E-05;10 mA;
617.208044441699;0.067779541015625;110.599999720762;554;-3.6346435546875E-05;10 mA;
617.408044441195;0.06707763671875;110.799999720257;555;-3.643798828125E-05;10 mA;
617.60804444069;0.066375732421875;110.999999719752;556;-3.6590576171875E-05;10 mA;
617.808044440185;0.065673828125;111.199999719247;557;-3.65295410156249E-05;10 mA;
618.00804443968;0.064971923828125;111.399999718742;558;-3.68652343750001E-05;10 mA;
618.208044439175;0.06427001953125;111.599999718237;559;-3.64074707031251E-05;10 mA;
618.40804443867;0.0635986328125;111.799999717732;560;-3.64990234375E-05;10 mA;
618.608044438165;0.06292724609375;111.999999717227;561;-3.6163330078125E-05;10 mA;
618.80804443766;0.062255859375;112.199999716722;562;-3.6651611328125E-05;10 mA;
619.008044437155;0.061553955078125;112.399999716217;563;-3.64074707031251E-05;10 mA;
619.20804443665;0.060882568359375;112.599999715712;564;-3.6590576171875E-05;10 mA;
619.408044436145;0.060211181640625;112.799999715207;565;-3.6163330078125E-05;10 mA;
619.60804443564;0.059539794921875;112.999999714702;566;-3.6468505859375E-05;10 mA;
619.808044435135;0.058837890625;113.199999714197;567;-3.64990234375E-05;10 mA;
620.00804443463;0.05816650390625;113.399999713693;568;-3.662109375E-05;10 mA;
620.208044434125;0.0574951171875;113.599999713188;569;-3.64990234375E-05;10 mA;
620.40804443362;0.056793212890625;113.799999712683;570;-3.6163330078125E-05;10 mA;
620.608044433115;0.05615234375;113.999999712178;571;-3.6590576171875E-05;10 mA;
620.80804443261;0.05548095703125;114.199999711673;572;-3.62243652343749E-05;10 mA;
621.008044432105;0.0548095703125;114.399999711168;573;-3.67431640625E-05;10 mA;
621.2080444316;0.054107666015625;114.599999710663;574;-3.64074707031251E-05;10 mA;
621.408044431096;0.053436279296875;114.799999710158;575;-3.6285400390625E-05;10 mA;
621.608044430591;0.052764892578125;114.999999709653;576;-3.5980224609375E-05;10 mA;
621.808044430086;0.052093505859375;115.199999709148;577;-3.62243652343749E-05;10 mA;
622.008044429581;0.051422119140625;115.399999708643;578;-3.6163330078125E-05;10 mA;
622.208044429076;0.05072021484375;115.599999708138;579;-3.6468505859375E-05;10 mA;
622.408044428571;0.050048828125;115.799999707633;580;-3.6346435546875E-05;10 mA;
622.608044428066;0.0493743896484375;115.999999707128;581;-3.6163330078125E-05;10 mA;
622.808044427561;0.0487060546875;116.199999706623;582;-3.62548828125001E-05;10 mA;
623.008044427056;0.0480499267578125;116.399999706118;583;-3.631591796875E-05;10 mA;
623.208044426551;0.0474029541015625;116.599999705613;584;-3.6285400390625E-05;10 mA;
623.408044426046;0.0467620849609375;116.799999705108;585;-3.643798828125E-05;10 mA;
623.608044425541;0.046136474609375;116.999999704603;586;-3.64990234375E-05;10 mA;
623.808044425036;0.0454833984375;117.199999704098;587;-3.63769531249999E-05;10 mA;
624.008044424531;0.0448455810546875;117.399999703593;588;-3.62243652343749E-05;10 mA;
624.208044424026;0.044183349609375;117.599999703089;589;-3.6346435546875E-05;10 mA;
624.408044423521;0.0435272216796875;117.799999702584;590;-3.65600585937501E-05;10 mA;
624.608044423016;0.0428680419921875;117.999999702079;591;-3.6346435546875E-05;10 mA;
624.808044422511;0.042254638671875;118.199999701574;592;-3.6468505859375E-05;10 mA;
625.008044422006;0.0416168212890625;118.399999701069;593;-3.619384765625E-05;10 mA;
625.208044421501;0.040997314453125;118.599999700564;594;-3.619384765625E-05;10 mA;
625.408044420996;0.0403472900390625;118.799999700059;595;-3.62548828125001E-05;10 mA;
625.608044420492;0.0397247314453125;118.999999699554;596;-3.63769531249999E-05;10 mA;
625.808044419987;0.039080810546875;119.199999699049;597;-3.65295410156249E-05;10 mA;
626.008044419482;0.0384368896484375;119.399999698544;598;-3.67126464843751E-05;10 mA;
626.208044418977;0.0378143310546875;119.599999698039;599;-3.63769531249999E-05;10 mA;
626.408044418472;0.0372100830078125;119.799999697534;600;-3.631591796875E-05;10 mA;
626.608044417967;0.0365875244140625;119.999999697029;601;-3.6651611328125E-05;10 mA;
626.808044417462;0.0359527587890625;120.199999696524;602;-3.6468505859375E-05;10 mA;
627.008044416957;0.0353515625;120.399999696019;603;-3.64074707031251E-05;10 mA;
627.208044416452;0.034722900390625;120.599999695514;604;-3.6163330078125E-05;10 mA;
627.408044415947;0.0341156005859375;120.799999695009;605;-3.6895751953125E-05;10 mA;
627.608044415442;0.03350830078125;120.999999694504;606;-3.662109375E-05;10 mA;
627.808044414937;0.032879638671875;121.199999693999;607;-3.643798828125E-05;10 mA;
628.008044414432;0.032281494140625;121.399999693494;608;-3.62243652343749E-05;10 mA;
628.208044413927;0.0316925048828125;121.59999969299;609;-3.6346435546875E-05;10 mA;
628.408044413422;0.0310699462890625;121.799999692485;610;-3.64990234375E-05;10 mA;
628.608044412917;0.030438232421875;121.99999969198;611;-3.662109375E-05;10 mA;
628.808044412412;0.0298004150390625;122.199999691475;612;-3.67431640625E-05;10 mA;
629.008044411907;0.029168701171875;122.39999969097;613;-3.65600585937501E-05;10 mA;
629.208044411402;0.0285491943359375;122.599999690465;614;-3.643798828125E-05;10 mA;
629.408044410897;0.0279541015625;122.79999968996;615;-3.65600585937501E-05;10 mA;
629.608044410392;0.0273284912109375;122.999999689455;616;-3.64990234375E-05;10 mA;
629.808044409888;0.026715087890625;123.19999968895;617;-3.67126464843751E-05;10 mA;
630.008044409383;0.0261322021484375;123.399999688445;618;-3.643798828125E-05;10 mA;
630.208044408878;0.0255126953125;123.59999968794;619;-3.65600585937501E-05;10 mA;
630.408044408373;0.024932861328125;123.799999687435;620;-3.63769531249999E-05;10 mA;
630.608044407868;0.0243255615234375;123.99999968693;621;-3.67126464843751E-05;10 mA;
630.808044407363;0.023712158203125;124.199999686425;622;-3.65600585937501E-05;10 mA;
631.008044406858;0.0231201171875;124.39999968592;623;-3.65600585937501E-05;10 mA;
631.208044406353;0.0225372314453125;124.599999685415;624;-3.67126464843751E-05;10 mA;
631.408044405848;0.021923828125;124.79999968491;625;-3.631591796875E-05;10 mA;
631.608044405343;0.0213409423828125;124.999999684405;626;-3.631591796875E-05;10 mA;
631.808044404838;0.0207550048828125;125.1999996839;627;-3.63769531249999E-05;10 mA;
632.008044404333;0.02017822265625;125.399999683395;628;-3.63769531249999E-05;10 mA;
632.208044403828;0.0195831298828125;125.59999968289;629;-3.6163330078125E-05;10 mA;
632.408044403323;0.0189910888671875;125.799999682386;630;-3.62243652343749E-05;10 mA;
632.608044402818;0.0184173583984375;125.999999681881;631;-3.67126464843751E-05;10 mA;
632.808044402313;0.01783447265625;126.199999681376;632;-3.6468505859375E-05;10 mA;
633.008044401808;0.0172576904296875;126.399999680871;633;-3.6285400390625E-05;10 mA;
633.208044401303;0.0166748046875;126.599999680366;634;-3.64074707031251E-05;10 mA;
633.408044400798;0.0160552978515625;126.799999679861;635;-3.62548828125001E-05;10 mA;
633.608044400293;0.015472412109375;126.999999679356;636;-3.67431640625E-05;10 mA;
633.808044399789;0.014898681640625;127.199999678851;637;-3.631591796875E-05;10 mA;
634.008044399284;0.014337158203125;127.399999678346;638;-3.67126464843751E-05;10 mA;
634.208044398779;0.0137725830078125;127.599999677841;639;-3.68347167968749E-05;10 mA;
634.408044398274;0.01319580078125;127.799999677336;640;-3.63769531249999E-05;10 mA;
634.608044397769;0.0126434326171875;127.999999676831;641;-3.65600585937501E-05;10 mA;
634.808044397264;0.012078857421875;128.199999676326;642;-3.643798828125E-05;10 mA;
635.008044396759;0.0114837646484375;128.399999675821;643;-3.64074707031251E-05;10 mA;
635.208044396254;0.0108917236328125;128.599999675316;644;-3.6468505859375E-05;10 mA;
635.408044395749;0.0103057861328125;128.799999674811;645;-3.6285400390625E-05;10 mA;
635.608044395244;0.009735107421875;128.999999674306;646;-3.67126464843751E-05;10 mA;
635.808044394739;0.0091888427734375;129.199999673801;647;-3.64074707031251E-05;10 mA;
636.008044394234;0.00861511230468751;129.399999673296;648;-3.6590576171875E-05;10 mA;
636.208044393729;0.0080718994140625;129.599999672791;649;-3.67126464843751E-05;10 mA;
636.408044393224;0.0075042724609375;129.799999672287;650;-3.643798828125E-05;10 mA;
636.608044392719;0.00694885253906249;129.999999671782;651;-3.65600585937501E-05;10 mA;
636.808044392214;0.006390380859375;130.199999671277;652;-3.63769531249999E-05;10 mA;
637.008044391709;0.005841064453125;130.399999670772;653;-3.65295410156249E-05;10 mA;
637.208044391204;0.00528564453124999;130.599999670267;654;-3.65295410156249E-05;10 mA;
637.408044390699;0.00469970703125;130.799999669762;655;-3.64990234375E-05;10 mA;
637.608044390194;0.00415954589843751;130.999999669257;656;-3.65600585937501E-05;10 mA;
637.808044389689;0.00364074707031251;131.199999668752;657;-3.64074707031251E-05;10 mA;
638.008044389185;0.0030670166015625;131.399999668247;658;-3.662109375E-05;10 mA;
638.20804438868;0.0025299072265625;131.599999667742;659;-3.64990234375E-05;10 mA;
638.408044388175;0.0019805908203125;131.799999667237;660;-3.65295410156249E-05;10 mA;
638.60804438767;0.00145874023437501;131.999999666732;661;-3.6346435546875E-05;10 mA;
638.808044387165;0.000918579101562497;132.199999666227;662;-3.619384765625E-05;10 mA;
639.00804438666;0.000363159179687503;132.399999665722;663;-3.64074707031251E-05;10 mA;
639.208044386155;-0.000189208984374994;132.599999665217;664;-3.6163330078125E-05;10 mA;
639.40804438565;-0.0007171630859375;132.799999664712;665;-3.63769531249999E-05;10 mA;
639.608044385145;-0.001251220703125;132.999999664207;666;-3.662109375E-05;10 mA;
639.80804438464;-0.0017669677734375;133.199999663702;667;-3.6651611328125E-05;10 mA;
640.008044384135;-0.00231018066406249;133.399999663197;668;-3.65600585937501E-05;10 mA;
640.20804438363;-0.002850341796875;133.599999662692;669;-3.662109375E-05;10 mA;
640.408044383125;-0.00336608886718751;133.799999662187;670;-3.64074707031251E-05;10 mA;
640.60804438262;-0.003875732421875;133.999999661683;671;-3.63769531249999E-05;10 mA;
640.808044382115;-0.00441589355468749;134.199999661178;672;-3.65600585937501E-05;10 mA;
641.00804438161;-0.00491943359374999;134.399999660673;673;-3.64990234375E-05;10 mA;
641.208044381105;-0.0054443359375;134.599999660168;674;-3.662109375E-05;10 mA;
641.4080443806;-0.00597534179687501;134.799999659663;675;-3.6773681640625E-05;10 mA;
641.608044380095;-0.0065032958984375;134.999999659158;676;-3.6651611328125E-05;10 mA;
641.80804437959;-0.00699462890624999;135.199999658653;677;-3.6468505859375E-05;10 mA;
642.008044379086;-0.00750122070312501;135.399999658148;678;-3.68347167968749E-05;10 mA;
642.208044378581;-0.0079986572265625;135.599999657643;679;-3.65600585937501E-05;10 mA;
642.408044378076;-0.00849609375;135.799999657138;680;-3.6590576171875E-05;10 mA;
642.608044377571;-0.0090057373046875;135.999999656633;681;-3.680419921875E-05;10 mA;
642.808044377066;-0.0095367431640625;136.199999656128;682;-3.6590576171875E-05;10 mA;
643.008044376561;-0.0100677490234375;136.399999655623;683;-3.662109375E-05;10 mA;
643.208044376056;-0.01055908203125;136.599999655118;684;-3.662109375E-05;10 mA;
643.408044375551;-0.0110595703125;136.799999654613;685;-3.6590576171875E-05;10 mA;
643.608044375046;-0.011578369140625;136.999999654108;686;-3.631591796875E-05;10 mA;
643.808044374541;-0.012060546875;137.199999653603;687;-3.662109375E-05;10 mA;
644.008044374036;-0.01258544921875;137.399999653098;688;-3.6651611328125E-05;10 mA;
644.208044373531;-0.0130828857421875;137.599999652593;689;-3.6651611328125E-05;10 mA;
644.408044373026;-0.01357421875;137.799999652088;690;-3.6651611328125E-05;10 mA;
644.608044372521;-0.0140777587890625;137.999999651583;691;-3.63769531249999E-05;10 mA;
644.808044372016;-0.0145965576171875;138.199999651079;692;-3.64990234375E-05;10 mA;
645.008044371511;-0.0151031494140625;138.399999650574;693;-3.62548828125001E-05;10 mA;
645.208044371006;-0.015606689453125;138.599999650069;694;-3.6468505859375E-05;10 mA;
645.408044370501;-0.01607666015625;138.799999649564;695;-3.63769531249999E-05;10 mA;
645.608044369996;-0.016583251953125;138.999999649059;696;-3.680419921875E-05;10 mA;
645.808044369491;-0.0170379638671875;139.199999648554;697;-3.619384765625E-05;10 mA;
646.008044368986;-0.0174957275390625;139.399999648049;698;-3.64074707031251E-05;10 mA;
646.208044368482;-0.0179840087890625;139.599999647544;699;-3.643798828125E-05;10 mA;
646.408044367977;-0.018463134765625;139.799999647039;700;-3.6651611328125E-05;10 mA;
646.608044367472;-0.0189666748046875;139.999999646534;701;-3.6590576171875E-05;10 mA;
646.808044366967;-0.01943359375;140.199999646029;702;-3.64074707031251E-05;10 mA;
647.008044366462;-0.0199066162109375;140.399999645524;703;-3.64074707031251E-05;10 mA;
647.208044365957;-0.0204071044921875;140.599999645019;704;-3.66821289062499E-05;10 mA;
647.408044365452;-0.0208892822265625;140.799999644514;705;-3.631591796875E-05;10 mA;
647.608044364947;-0.0213836669921875;140.999999644009;706;-3.6468505859375E-05;10 mA;
647.808044364442;-0.0218414306640625;141.199999643504;707;-3.692626953125E-05;10 mA;
648.008044363937;-0.022308349609375;141.399999642999;708;-3.67126464843751E-05;10 mA;
648.208044363432;-0.022760009765625;141.599999642494;709;-3.65295410156249E-05;10 mA;
648.408044362927;-0.0232330322265625;141.799999641989;710;-3.631591796875E-05;10 mA;
648.608044362422;-0.0237091064453125;141.999999641484;711;-3.643798828125E-05;10 mA;
648.808044361917;-0.0241943359375;142.19999964098;712;-3.6468505859375E-05;10 mA;
649.008044361412;-0.0246856689453125;142.399999640475;713;-3.6590576171875E-05;10 mA;
649.208044360907;-0.025146484375;142.59999963997;714;-3.67431640625E-05;10 mA;
649.408044360402;-0.025616455078125;142.799999639465;715;-3.62548828125001E-05;10 mA;
649.608044359897;-0.0260772705078125;142.99999963896;716;-3.64990234375E-05;10 mA;
649.808044359392;-0.0265289306640625;143.199999638455;717;-3.61022949218751E-05;10 mA;
650.008044358887;-0.027008056640625;143.39999963795;718;-3.64074707031251E-05;10 mA;
650.208044358382;-0.0274658203125;143.599999637445;719;-3.64990234375E-05;10 mA;
650.408044357878;-0.02791748046875;143.79999963694;720;-3.6651611328125E-05;10 mA;
650.608044357373;-0.0283905029296875;143.999999636435;721;-3.6651611328125E-05;10 mA;
650.808044356868;-0.028863525390625;144.19999963593;722;-3.643798828125E-05;10 mA;
651.008044356363;-0.0293121337890625;144.399999635425;723;-3.65295410156249E-05;10 mA;
651.208044355858;-0.0297607421875;144.59999963492;724;-3.6346435546875E-05;10 mA;
651.408044355353;-0.0302215576171875;144.799999634415;725;-3.6163330078125E-05;10 mA;
651.608044354848;-0.0306854248046875;144.99999963391;726;-3.65600585937501E-05;10 mA;
651.808044354343;-0.0310943603515625;145.199999633405;727;-3.65295410156249E-05;10 mA;
652.008044353838;-0.03154296875;145.3999996329;728;-3.692626953125E-05;10 mA;
652.208044353333;-0.0319732666015625;145.599999632395;729;-3.68652343750001E-05;10 mA;
652.408044352828;-0.0324127197265625;145.79999963189;730;-3.64990234375E-05;10 mA;
652.608044352323;-0.032843017578125;145.999999631385;731;-3.6590576171875E-05;10 mA;
652.808044351818;-0.0332763671875;146.19999963088;732;-3.6346435546875E-05;10 mA;
653.008044351313;-0.0337066650390625;146.399999630376;733;-3.65600585937501E-05;10 mA;
653.208044350808;-0.0341278076171875;146.599999629871;734;-3.64990234375E-05;10 mA;
653.408044350303;-0.0345672607421875;146.799999629366;735;-3.68652343750001E-05;10 mA;
653.608044349798;-0.0349761962890625;146.999999628861;736;-3.6468505859375E-05;10 mA;
653.808044349293;-0.035418701171875;147.199999628356;737;-3.643798828125E-05;10 mA;
654.008044348788;-0.035870361328125;147.399999627851;738;-3.6468505859375E-05;10 mA;
654.208044348283;-0.036285400390625;147.599999627346;739;-3.6285400390625E-05;10 mA;
654.408044347779;-0.036712646484375;147.799999626841;740;-3.6590576171875E-05;10 mA;
654.608044347274;-0.0371124267578125;147.999999626336;741;-3.61022949218751E-05;10 mA;
654.808044346769;-0.0375579833984375;148.199999625831;742;-3.6468505859375E-05;10 mA;
655.008044346264;-0.0379669189453125;148.399999625326;743;-3.662109375E-05;10 mA;
655.208044345759;-0.0383941650390625;148.599999624821;744;-3.68652343750001E-05;10 mA;
655.408044345254;-0.0387939453125;148.799999624316;745;-3.662109375E-05;10 mA;
655.608044344749;-0.039202880859375;148.999999623811;746;-3.6468505859375E-05;10 mA;
655.808044344244;-0.039617919921875;149.199999623306;747;-3.6285400390625E-05;10 mA;
656.008044343739;-0.0399932861328125;149.399999622801;748;-3.63769531249999E-05;10 mA;
656.208044343234;-0.0404022216796875;149.599999622296;749;-3.67126464843751E-05;10 mA;
656.408044342729;-0.040789794921875;149.799999621791;750;-3.6651611328125E-05;10 mA;
656.608044342224;-0.0411834716796875;149.999999621286;751;-3.64990234375E-05;10 mA;
656.808044341719;-0.0415863037109375;150.199999620781;752;-3.64074707031251E-05;10 mA;
657.008044341214;-0.04195556640625;150.399999620277;753;-3.63769531249999E-05;10 mA;
657.208044340709;-0.042352294921875;150.599999619772;754;-3.67431640625E-05;10 mA;
657.408044340204;-0.0427520751953125;150.799999619267;755;-3.662109375E-05;10 mA;
657.608044339699;-0.04312744140625;150.999999618762;756;-3.6468505859375E-05;10 mA;
657.808044339194;-0.043511962890625;151.199999618257;757;-3.62548828125001E-05;10 mA;
658.008044338689;-0.04388427734375;151.399999617752;758;-3.6773681640625E-05;10 mA;
658.208044338184;-0.044281005859375;151.599999617247;759;-3.65600585937501E-05;10 mA;
658.408044337679;-0.044659423828125;151.799999616742;760;-3.6590576171875E-05;10 mA;
658.608044337175;-0.0450653076171875;151.999999616237;761;-3.643798828125E-05;10 mA;
658.80804433667;-0.0454345703125;152.199999615732;762;-3.6895751953125E-05;10 mA;
659.008044336165;-0.04581298828125;152.399999615227;763;-3.662109375E-05;10 mA;
659.20804433566;-0.046173095703125;152.599999614722;764;-3.631591796875E-05;10 mA;
659.408044335155;-0.046563720703125;152.799999614217;765;-3.6590576171875E-05;10 mA;
659.60804433465;-0.04693603515625;152.999999613712;766;-3.6468505859375E-05;10 mA;
659.808044334145;-0.047314453125;153.199999613207;767;-3.67126464843751E-05;10 mA;
660.00804433364;-0.047698974609375;153.399999612702;768;-3.66821289062499E-05;10 mA;
660.208044333135;-0.048089599609375;153.599999612197;769;-3.643798828125E-05;10 mA;
660.40804433263;-0.0484619140625;153.799999611692;770;-3.631591796875E-05;10 mA;
660.608044332125;-0.0488189697265625;153.999999611187;771;-3.6285400390625E-05;10 mA;
660.80804433162;-0.04920654296875;154.199999610682;772;-3.65295410156249E-05;10 mA;
661.008044331115;-0.049566650390625;154.399999610177;773;-3.6468505859375E-05;10 mA;
661.20804433061;-0.049957275390625;154.599999609673;774;-3.680419921875E-05;10 mA;
661.408044330105;-0.05029296875;154.799999609168;775;-3.643798828125E-05;10 mA;
661.6080443296;-0.0506591796875;154.999999608663;776;-3.67431640625E-05;10 mA;
661.808044329095;-0.051025390625;155.199999608158;777;-3.61328125E-05;10 mA;
662.00804432859;-0.051422119140625;155.399999607653;778;-3.6468505859375E-05;10 mA;
662.208044328085;-0.0517578125;155.599999607148;779;-3.61328125E-05;10 mA;
662.40804432758;-0.052093505859375;155.799999606643;780;-3.6590576171875E-05;10 mA;
662.608044327076;-0.05242919921875;155.999999606138;781;-3.66821289062499E-05;10 mA;
662.808044326571;-0.052825927734375;156.199999605633;782;-3.67126464843751E-05;10 mA;
663.008044326066;-0.05316162109375;156.399999605128;783;-3.631591796875E-05;10 mA;
663.208044325561;-0.053497314453125;156.599999604623;784;-3.65600585937501E-05;10 mA;
663.408044325056;-0.053863525390625;156.799999604118;785;-3.62548828125001E-05;10 mA;
663.608044324551;-0.054229736328125;156.999999603613;786;-3.6346435546875E-05;10 mA;
663.808044324046;-0.0545654296875;157.199999603108;787;-3.66821289062499E-05;10 mA;
664.008044323541;-0.054931640625;157.399999602603;788;-3.64990234375E-05;10 mA;
664.208044323036;-0.055267333984375;157.599999602098;789;-3.67431640625E-05;10 mA;
664.408044322531;-0.055633544921875;157.799999601593;790;-3.63769531249999E-05;10 mA;
664.608044322026;-0.05596923828125;157.999999601088;791;-3.631591796875E-05;10 mA;
664.808044321521;-0.0562744140625;158.199999600583;792;-3.6468505859375E-05;10 mA;
665.008044321016;-0.056610107421875;158.399999600078;793;-3.631591796875E-05;10 mA;
665.208044320511;-0.05694580078125;158.599999599573;794;-3.65295410156249E-05;10 mA;
665.408044320006;-0.0572509765625;158.799999599069;795;-3.67126464843751E-05;10 mA;
665.608044319501;-0.0576171875;158.999999598564;796;-3.6285400390625E-05;10 mA;
665.808044318996;-0.0579833984375;159.199999598059;797;-3.6590576171875E-05;10 mA;
666.008044318491;-0.058319091796875;159.399999597554;798;-3.6285400390625E-05;10 mA;
666.208044317986;-0.058624267578125;159.599999597049;799;-3.63769531249999E-05;10 mA;
666.408044317481;-0.058929443359375;159.799999596544;800;-3.63769531249999E-05;10 mA;
666.608044316976;-0.05926513671875;159.999999596039;801;-3.692626953125E-05;10 mA;
666.808044316472;-0.0595703125;160.199999595534;802;-3.64074707031251E-05;10 mA;
667.008044315967;-0.05987548828125;160.399999595029;803;-3.6468505859375E-05;10 mA;
667.208044315462;-0.060211181640625;160.599999594524;804;-3.65295410156249E-05;10 mA;
667.408044314957;-0.060546875;160.799999594019;805;-3.66821289062499E-05;10 mA;
667.608044314452;-0.060882568359375;160.999999593514;806;-3.67431640625E-05;10 mA;
667.808044313947;-0.061187744140625;161.199999593009;807;-3.6285400390625E-05;10 mA;
668.008044313442;-0.061492919921875;161.399999592504;808;-3.6346435546875E-05;10 mA;
668.208044312937;-0.061798095703125;161.599999591999;809;-3.62548828125001E-05;10 mA;
668.408044312432;-0.0621337890625;161.799999591494;810;-3.64074707031251E-05;10 mA;
668.608044311927;-0.06243896484375;161.999999590989;811;-3.6468505859375E-05;10 mA;
668.808044311422;-0.062744140625;162.199999590484;812;-3.6468505859375E-05;10 mA;
669.008044310917;-0.06304931640625;162.399999589979;813;-3.6590576171875E-05;10 mA;
669.208044310412;-0.0633544921875;162.599999589474;814;-3.6468505859375E-05;10 mA;
669.408044309907;-0.06365966796875;162.79999958897;815;-3.6651611328125E-05;10 mA;
669.608044309402;-0.06396484375;162.999999588465;816;-3.662109375E-05;10 mA;
669.808044308897;-0.064208984375;163.19999958796;817;-3.643798828125E-05;10 mA;
670.008044308392;-0.06451416015625;163.399999587455;818;-3.6651611328125E-05;10 mA;
670.208044307887;-0.0648193359375;163.59999958695;819;-3.662109375E-05;10 mA;
670.408044307382;-0.06512451171875;163.799999586445;820;-3.662109375E-05;10 mA;
670.608044306877;-0.0654296875;163.99999958594;821;-3.5980224609375E-05;10 mA;
670.808044306372;-0.065704345703125;164.199999585435;822;-3.643798828125E-05;10 mA;
671.008044305868;-0.066009521484375;164.39999958493;823;-3.680419921875E-05;10 mA;
671.208044305363;-0.066314697265625;164.599999584425;824;-3.65600585937501E-05;10 mA;
671.408044304858;-0.06658935546875;164.79999958392;825;-3.64990234375E-05;10 mA;
671.608044304353;-0.066925048828125;164.999999583415;826;-3.67126464843751E-05;10 mA;
671.808044303848;-0.067230224609375;165.19999958291;827;-3.662109375E-05;10 mA;
672.008044303343;-0.0675048828125;165.399999582405;828;-3.67126464843751E-05;10 mA;
672.208044302838;-0.067779541015625;165.5999995819;829;-3.64990234375E-05;10 mA;
672.408044302333;-0.06805419921875;165.799999581395;830;-3.6346435546875E-05;10 mA;
672.608044301828;-0.068359375;165.99999958089;831;-3.6468505859375E-05;10 mA;
672.808044301323;-0.068634033203125;166.199999580385;832;-3.6651611328125E-05;10 mA;
673.008044300818;-0.068939208984375;166.39999957988;833;-3.67431640625E-05;10 mA;
673.208044300313;-0.069244384765625;166.599999579375;834;-3.65295410156249E-05;10 mA;
673.408044299808;-0.06951904296875;166.79999957887;835;-3.6346435546875E-05;10 mA;
673.608044299303;-0.06982421875;166.999999578366;836;-3.6895751953125E-05;10 mA;
673.808044298798;-0.070098876953125;167.199999577861;837;-3.64990234375E-05;10 mA;
674.008044298293;-0.07037353515625;167.399999577356;838;-3.6590576171875E-05;10 mA;
674.208044297788;-0.07061767578125;167.599999576851;839;-3.64990234375E-05;10 mA;
674.408044297283;-0.070892333984375;167.799999576346;840;-3.67126464843751E-05;10 mA;
674.608044296778;-0.0711669921875;167.999999575841;841;-3.64990234375E-05;10 mA;
674.808044296273;-0.071441650390625;168.199999575336;842;-3.692626953125E-05;10 mA;
675.008044295769;-0.071685791015625;168.399999574831;843;-3.6346435546875E-05;10 mA;
675.208044295264;-0.071990966796875;168.599999574326;844;-3.64990234375E-05;10 mA;
675.408044294759;-0.072235107421875;168.799999573821;845;-3.65600585937501E-05;10 mA;
675.608044294254;-0.072509765625;168.999999573316;846;-3.67126464843751E-05;10 mA;
675.808044293749;-0.07275390625;169.199999572811;847;-3.680419921875E-05;10 mA;
676.008044293244;-0.072998046875;169.399999572306;848;-3.643798828125E-05;10 mA;
676.208044292739;-0.07330322265625;169.599999571801;849;-3.65600585937501E-05;10 mA;
676.408044292234;-0.07354736328125;169.799999571296;850;-3.67431640625E-05;10 mA;
676.608044291729;-0.073822021484375;169.999999570791;851;-3.68652343750001E-05;10 mA;
676.808044291224;-0.0740966796875;170.199999570286;852;-3.631591796875E-05;10 mA;
677.008044290719;-0.0743408203125;170.399999569781;853;-3.643798828125E-05;10 mA;
677.208044290214;-0.074615478515625;170.599999569276;854;-3.65295410156249E-05;10 mA;
677.408044289709;-0.074859619140625;170.799999568771;855;-3.662109375E-05;10 mA;
677.608044289204;-0.075103759765625;170.999999568267;856;-3.70178222656251E-05;10 mA;
677.808044288699;-0.075347900390625;171.199999567762;857;-3.66821289062499E-05;10 mA;
678.008044288194;-0.075592041015625;171.399999567257;858;-3.65295410156249E-05;10 mA;
678.208044287689;-0.07586669921875;171.599999566752;859;-3.6468505859375E-05;10 mA;
678.408044287184;-0.07611083984375;171.799999566247;860;-3.62548828125001E-05;10 mA;
678.608044286679;-0.076385498046875;171.999999565742;861;-3.62548828125001E-05;10 mA;
678.808044286174;-0.07666015625;172.199999565237;862;-3.67126464843751E-05;10 mA;
679.008044285669;-0.076904296875;172.399999564732;863;-3.6468505859375E-05;10 mA;
679.208044285165;-0.07708740234375;172.599999564227;864;-3.6590576171875E-05;10 mA;
679.40804428466;-0.07733154296875;172.799999563722;865;-3.6163330078125E-05;10 mA;
679.608044284155;-0.07757568359375;172.999999563217;866;-3.680419921875E-05;10 mA;
679.80804428365;-0.077850341796875;173.199999562712;867;-3.68652343750001E-05;10 mA;
680.008044283145;-0.078094482421875;173.399999562207;868;-3.643798828125E-05;10 mA;
680.20804428264;-0.07830810546875;173.599999561702;869;-3.6590576171875E-05;10 mA;
680.408044282135;-0.078582763671875;173.799999561197;870;-3.68652343750001E-05;10 mA;
680.60804428163;-0.078826904296875;173.999999560692;871;-3.67126464843751E-05;10 mA;
680.808044281125;-0.07904052734375;174.199999560187;872;-3.6651611328125E-05;10 mA;
681.00804428062;-0.07928466796875;174.399999559682;873;-3.68652343750001E-05;10 mA;
681.208044280115;-0.07952880859375;174.599999559177;874;-3.66821289062499E-05;10 mA;
681.40804427961;-0.079742431640625;174.799999558672;875;-3.66821289062499E-05;10 mA;
681.608044279105;-0.079986572265625;174.999999558167;876;-3.64990234375E-05;10 mA;
681.8080442786;-0.080230712890625;175.199999557663;877;-3.6651611328125E-05;10 mA;
682.008044278095;-0.0804443359375;175.399999557158;878;-3.64990234375E-05;10 mA;
682.20804427759;-0.0806884765625;175.599999556653;879;-3.63769531249999E-05;10 mA;
682.408044277085;-0.080963134765625;175.799999556148;880;-3.6285400390625E-05;10 mA;
682.60804427658;-0.0811767578125;175.999999555643;881;-3.64990234375E-05;10 mA;
682.808044276075;-0.0814208984375;176.199999555138;882;-3.65295410156249E-05;10 mA;
683.00804427557;-0.0816650390625;176.399999554633;883;-3.662109375E-05;10 mA;
683.208044275066;-0.081939697265625;176.599999554128;884;-3.65295410156249E-05;10 mA;
683.408044274561;-0.082183837890625;176.799999553623;885;-3.66821289062499E-05;10 mA;
683.608044274056;-0.0823974609375;176.999999553118;886;-3.6590576171875E-05;10 mA;
683.808044273551;-0.0826416015625;177.199999552613;887;-3.6651611328125E-05;10 mA;
684.008044273046;-0.082855224609375;177.399999552108;888;-3.619384765625E-05;10 mA;
684.208044272541;-0.08306884765625;177.599999551603;889;-3.65295410156249E-05;10 mA;
684.408044272036;-0.083282470703125;177.799999551098;890;-3.6956787109375E-05;10 mA;
684.608044271531;-0.083526611328125;177.999999550593;891;-3.64074707031251E-05;10 mA;
684.808044271026;-0.083740234375;178.199999550088;892;-3.64990234375E-05;10 mA;
685.008044270521;-0.083984375;178.399999549583;893;-3.6773681640625E-05;10 mA;
685.208044270016;-0.084228515625;178.599999549078;894;-3.68652343750001E-05;10 mA;
685.408044269511;-0.084442138671875;178.799999548573;895;-3.6651611328125E-05;10 mA;
685.608044269006;-0.084686279296875;178.999999548068;896;-3.6285400390625E-05;10 mA;
685.808044268501;-0.08489990234375;179.199999547563;897;-3.6346435546875E-05;10 mA;
686.008044267996;-0.085113525390625;179.399999547059;898;-3.6773681640625E-05;10 mA;
686.208044267491;-0.0853271484375;179.599999546554;899;-3.6773681640625E-05;10 mA;
686.408044266986;-0.08551025390625;179.799999546049;900;-3.6651611328125E-05;10 mA;
686.608044266481;-0.08575439453125;179.999999545544;901;-3.65600585937501E-05;10 mA;
686.808044265976;-0.085968017578125;180.199999545039;902;-3.67431640625E-05;10 mA;
687.008044265471;-0.086181640625;180.399999544534;903;-3.6468505859375E-05;10 mA;
687.208044264966;-0.08636474609375;180.599999544029;904;-3.6590576171875E-05;10 mA;
687.408044264462;-0.086578369140625;180.799999543524;905;-3.64074707031251E-05;10 mA;
687.608044263957;-0.0867919921875;180.999999543019;906;-3.619384765625E-05;10 mA;
687.808044263452;-0.08697509765625;181.199999542514;907;-3.631591796875E-05;10 mA;
688.008044262947;-0.08721923828125;181.399999542009;908;-3.643798828125E-05;10 mA;
688.208044262442;-0.08740234375;181.599999541504;909;-3.68652343750001E-05;10 mA;
688.408044261937;-0.087646484375;181.799999540999;910;-3.6773681640625E-05;10 mA;
688.608044261432;-0.08782958984375;181.999999540494;911;-3.6468505859375E-05;10 mA;
688.808044260927;-0.088043212890625;182.199999539989;912;-3.64990234375E-05;10 mA;
689.008044260422;-0.0882568359375;182.399999539484;913;-3.680419921875E-05;10 mA;
689.208044259917;-0.088470458984375;182.599999538979;914;-3.64074707031251E-05;10 mA;
689.408044259412;-0.08868408203125;182.799999538474;915;-3.62243652343749E-05;10 mA;
689.608044258907;-0.0888671875;182.999999537969;916;-3.62548828125001E-05;10 mA;
689.808044258402;-0.089080810546875;183.199999537464;917;-3.64990234375E-05;10 mA;
690.008044257897;-0.089263916015625;183.39999953696;918;-3.65600585937501E-05;10 mA;
690.208044257392;-0.0894775390625;183.599999536455;919;-3.64990234375E-05;10 mA;
690.408044256887;-0.08966064453125;183.79999953595;920;-3.643798828125E-05;10 mA;
690.608044256382;-0.089874267578125;183.999999535445;921;-3.68652343750001E-05;10 mA;
690.808044255877;-0.090057373046875;184.19999953494;922;-3.64074707031251E-05;10 mA;
691.008044255372;-0.09027099609375;184.399999534435;923;-3.66821289062499E-05;10 mA;
691.208044254867;-0.090484619140625;184.59999953393;924;-3.62243652343749E-05;10 mA;
691.408044254362;-0.0906982421875;184.799999533425;925;-3.65600585937501E-05;10 mA;
691.608044253858;-0.09088134765625;184.99999953292;926;-3.64990234375E-05;10 mA;
691.808044253353;-0.091064453125;185.199999532415;927;-3.64990234375E-05;10 mA;
692.008044252848;-0.091278076171875;185.39999953191;928;-3.6346435546875E-05;10 mA;
692.208044252343;-0.09149169921875;185.599999531405;929;-3.66821289062499E-05;10 mA;
692.408044251838;-0.0916748046875;185.7999995309;930;-3.64990234375E-05;10 mA;
692.608044251333;-0.091888427734375;185.999999530395;931;-3.64990234375E-05;10 mA;
692.808044250828;-0.092071533203125;186.19999952989;932;-3.6590576171875E-05;10 mA;
693.008044250323;-0.092315673828125;186.399999529385;933;-3.6651611328125E-05;10 mA;
693.208044249818;-0.092498779296875;186.59999952888;934;-3.662109375E-05;10 mA;
693.408044249313;-0.092681884765625;186.799999528375;935;-3.64074707031251E-05;10 mA;
693.608044248808;-0.092864990234375;186.99999952787;936;-3.6651611328125E-05;10 mA;
693.808044248303;-0.093048095703125;187.199999527365;937;-3.62243652343749E-05;10 mA;
694.008044247798;-0.09320068359375;187.39999952686;938;-3.6773681640625E-05;10 mA;
694.208044247293;-0.0933837890625;187.599999526356;939;-3.68347167968749E-05;10 mA;
694.408044246788;-0.09356689453125;187.799999525851;940;-3.65295410156249E-05;10 mA;
694.608044246283;-0.09375;187.999999525346;941;-3.67431640625E-05;10 mA;
694.808044245778;-0.09393310546875;188.199999524841;942;-3.64990234375E-05;10 mA;
695.008044245273;-0.0941162109375;188.399999524336;943;-3.62548828125001E-05;10 mA;
695.208044244768;-0.09429931640625;188.599999523831;944;-3.67431640625E-05;10 mA;
695.408044244263;-0.094482421875;188.799999523326;945;-3.65600585937501E-05;10 mA;
695.608044243759;-0.094696044921875;188.999999522821;946;-3.68347167968749E-05;10 mA;
695.808044243254;-0.094879150390625;189.199999522316;947;-3.63769531249999E-05;10 mA;
696.008044242749;-0.095062255859375;189.399999521811;948;-3.64990234375E-05;10 mA;
696.208044242244;-0.095245361328125;189.599999521306;949;-3.67126464843751E-05;10 mA;
696.408044241739;-0.095428466796875;189.799999520801;950;-3.65295410156249E-05;10 mA;
696.608044241234;-0.0955810546875;189.999999520296;951;-3.66821289062499E-05;10 mA;
696.808044240729;-0.095794677734375;190.199999519791;952;-3.643798828125E-05;10 mA;
697.008044240224;-0.095977783203125;190.399999519286;953;-3.64990234375E-05;10 mA;
697.208044239719;-0.09613037109375;190.599999518781;954;-3.65600585937501E-05;10 mA;
697.408044239214;-0.0963134765625;190.799999518276;955;-3.65295410156249E-05;10 mA;
697.608044238709;-0.0965576171875;190.999999517771;956;-3.6468505859375E-05;10 mA;
697.808044238204;-0.096710205078125;191.199999517266;957;-3.6590576171875E-05;10 mA;
698.008044237699;-0.096893310546875;191.399999516761;958;-3.6041259765625E-05;10 mA;
698.208044237194;-0.09710693359375;191.599999516257;959;-3.6773681640625E-05;10 mA;
698.408044236689;-0.097259521484375;191.799999515752;960;-3.6468505859375E-05;10 mA;
698.608044236184;-0.097442626953125;191.999999515247;961;-3.65600585937501E-05;10 mA;
698.808044235679;-0.09759521484375;192.199999514742;962;-3.69873046874999E-05;10 mA;
699.008044235174;-0.0977783203125;192.399999514237;963;-3.680419921875E-05;10 mA;
699.208044234669;-0.097930908203125;192.599999513732;964;-3.631591796875E-05;10 mA;
699.408044234164;-0.098114013671875;192.799999513227;965;-3.662109375E-05;10 mA;
699.608044233659;-0.098236083984375;192.999999512722;966;-3.6651611328125E-05;10 mA;
699.808044233155;-0.098388671875;193.199999512217;967;-3.631591796875E-05;10 mA;
700.00804423265;-0.098541259765625;193.399999511712;968;-3.643798828125E-05;10 mA;
700.208044232145;-0.09869384765625;193.599999511207;969;-3.66821289062499E-05;10 mA;
700.40804423164;-0.098876953125;193.799999510702;970;-3.6285400390625E-05;10 mA;
700.608044231135;-0.099029541015625;193.999999510197;971;-3.67126464843751E-05;10 mA;
700.80804423063;-0.09918212890625;194.199999509692;972;-3.6590576171875E-05;10 mA;
701.008044230125;-0.099334716796875;194.399999509187;973;-3.6956787109375E-05;10 mA;
701.20804422962;-0.0994873046875;194.599999508682;974;-3.6895751953125E-05;10 mA;
701.408044229115;-0.09967041015625;194.799999508177;975;-3.65295410156249E-05;10 mA;
701.60804422861;-0.09979248046875;194.999999507672;976;-3.662109375E-05;10 mA;
701.808044228105;-0.09991455078125;195.199999507167;977;-3.64990234375E-05;10 mA;
702.0080442276;-0.100067138671875;195.399999506662;978;-3.65600585937501E-05;10 mA;WE(1).Potential < -0,1 V
702.208044227095;-0.100250244140625;195.599999506157;979;-3.6590576171875E-05;10 mA;WE(1).Potential < -0,1 V
702.40804422659;-0.10040283203125;195.799999505653;980;-3.6468505859375E-05;10 mA;WE(1).Potential < -0,1 V
702.608044226085;-0.10052490234375;195.999999505148;981;-3.6590576171875E-05;10 mA;WE(1).Potential < -0,1 V
