Time (s);WE(1).Potential (V);Corrected time (s);Index;WE(1).Current (A);Current range;Cutoffs
349.40801811783;-0.037860107421875;0;1;4.98352050781251E-05;10 mA;WE(1).Potential > 0,85 V , WE(1).Potential > 0,85 V , WE(1).Potential > 0,85 V , WE(1).Potential > 0,85 V
349.608018117325;-0.0295623779296875;0.199999999495049;2;5.09033203125001E-05;10 mA;
349.80801811682;-0.022296142578125;0.399999998990097;3;5.1116943359375E-05;10 mA;
350.008018116315;-0.0157470703125;0.599999998485146;4;4.96826171875001E-05;10 mA;
350.20801811581;-0.0096893310546875;0.799999997980194;5;4.8187255859375E-05;10 mA;
350.408018115305;-0.00402221679687501;0.999999997475243;6;4.84313964843749E-05;10 mA;
350.6080181148;0.001312255859375;1.19999999697029;7;4.98352050781251E-05;10 mA;
350.808018114295;0.006396484375;1.39999999646534;8;4.91943359374999E-05;10 mA;
351.00801811379;0.011248779296875;1.59999999596039;9;5.0537109375E-05;10 mA;
351.208018113285;0.0159149169921875;1.79999999545544;10;4.913330078125E-05;10 mA;
351.40801811278;0.0203948974609375;1.99999999495049;11;4.931640625E-05;10 mA;
351.608018112275;0.024725341796875;2.19999999444553;12;4.8370361328125E-05;10 mA;
351.80801811177;0.0289093017578125;2.39999999394058;13;4.91943359374999E-05;10 mA;
352.008018111265;0.0329681396484375;2.59999999343563;14;4.85839843749999E-05;10 mA;
352.20801811076;0.036907958984375;2.79999999293068;15;4.8797607421875E-05;10 mA;
352.408018110255;0.04073486328125;2.99999999242573;16;4.96520996093749E-05;10 mA;
352.60801810975;0.0444915771484375;3.19999999192078;17;5.10253906249999E-05;10 mA;
352.808018109245;0.0481689453125;3.39999999141583;18;4.9896240234375E-05;10 mA;
353.00801810874;0.05181884765625;3.59999999091087;19;5.0323486328125E-05;10 mA;
353.208018108235;0.055328369140625;3.79999999040592;20;4.8797607421875E-05;10 mA;
353.408018107731;0.05877685546875;3.99999998990097;21;4.7882080078125E-05;10 mA;
353.608018107226;0.0621337890625;4.19999998939602;22;4.82788085937499E-05;10 mA;
353.808018106721;0.0654296875;4.39999998889107;23;5.09033203125001E-05;10 mA;
354.008018106216;0.06866455078125;4.59999998838612;24;4.852294921875E-05;10 mA;
354.208018105711;0.07183837890625;4.79999998788116;25;4.96520996093749E-05;10 mA;
354.408018105206;0.074981689453125;4.99999998737621;26;4.90722656250001E-05;10 mA;
354.608018104701;0.078033447265625;5.19999998687126;27;4.730224609375E-05;10 mA;
354.808018104196;0.081024169921875;5.39999998636631;28;4.8828125E-05;10 mA;
355.008018103691;0.084014892578125;5.59999998586136;29;4.87060546875E-05;10 mA;
355.208018103186;0.0869140625;5.79999998535641;30;4.78210449218749E-05;10 mA;
355.408018102681;0.089752197265625;5.99999998485146;31;5.11474609375E-05;10 mA;
355.608018102176;0.092559814453125;6.1999999843465;32;4.87365722656249E-05;10 mA;
355.808018101671;0.095306396484375;6.39999998384155;33;4.94995117187499E-05;10 mA;
356.008018101166;0.098052978515625;6.5999999833366;34;5.12084960937501E-05;10 mA;
356.208018100661;0.100738525390625;6.79999998283165;35;5.084228515625E-05;10 mA;
356.408018100156;0.1033935546875;6.9999999823267;36;5.0048828125E-05;10 mA;
356.608018099651;0.105987548828125;7.19999998182175;37;4.6875E-05;10 mA;
356.808018099146;0.108551025390625;7.3999999813168;38;4.75463867187501E-05;10 mA;
357.008018098641;0.111083984375;7.59999998081184;39;4.7882080078125E-05;10 mA;
357.208018098136;0.113616943359375;7.79999998030689;40;4.9896240234375E-05;10 mA;
357.408018097631;0.1160888671875;7.99999997980194;41;4.8370361328125E-05;10 mA;
357.608018097127;0.1185302734375;8.19999997929699;42;4.9560546875E-05;10 mA;
357.808018096622;0.1209716796875;8.39999997879204;43;4.8980712890625E-05;10 mA;
358.008018096117;0.12335205078125;8.59999997828709;44;4.90722656250001E-05;10 mA;
358.208018095612;0.125701904296875;8.79999997778214;45;4.9713134765625E-05;10 mA;
358.408018095107;0.128021240234375;8.99999997727718;46;5.01403808593751E-05;10 mA;
358.608018094602;0.13031005859375;9.19999997677223;47;5.07507324218751E-05;10 mA;
358.808018094097;0.132598876953125;9.39999997626728;48;4.7454833984375E-05;10 mA;
359.008018093592;0.13482666015625;9.59999997576233;49;4.75463867187501E-05;10 mA;
359.208018093087;0.137054443359375;9.79999997525738;50;4.90722656250001E-05;10 mA;
359.408018092582;0.139251708984375;9.99999997475243;51;4.93774414062501E-05;10 mA;
359.608018092077;0.14141845703125;10.1999999742475;52;4.6875E-05;10 mA;
359.808018091572;0.143585205078125;10.3999999737425;53;4.8675537109375E-05;10 mA;
360.008018091067;0.145721435546875;10.5999999732376;54;5.0079345703125E-05;10 mA;
360.208018090562;0.147857666015625;10.7999999727326;55;4.69970703125E-05;10 mA;
360.408018090057;0.149932861328125;10.9999999722277;56;5.0201416015625E-05;10 mA;
360.608018089552;0.152008056640625;11.1999999717227;57;4.8248291015625E-05;10 mA;
360.808018089047;0.154052734375;11.3999999712178;58;5.13610839843751E-05;10 mA;
361.008018088542;0.15606689453125;11.5999999707128;59;5.13916015625E-05;10 mA;
361.208018088037;0.1580810546875;11.7999999702079;60;4.986572265625E-05;10 mA;
361.408018087532;0.16009521484375;11.9999999697029;61;4.8065185546875E-05;10 mA;
361.608018087028;0.16204833984375;12.199999969198;62;4.974365234375E-05;10 mA;
361.808018086523;0.164031982421875;12.399999968693;63;4.7454833984375E-05;10 mA;
362.008018086018;0.165985107421875;12.5999999681881;64;4.95300292968751E-05;10 mA;
362.208018085513;0.167938232421875;12.7999999676831;65;5.0933837890625E-05;10 mA;
362.408018085008;0.1697998046875;12.9999999671782;66;4.8095703125E-05;10 mA;
362.608018084503;0.17169189453125;13.1999999666732;67;4.9163818359375E-05;10 mA;
362.808018083998;0.173553466796875;13.3999999661683;68;5.0079345703125E-05;10 mA;
363.008018083493;0.1754150390625;13.5999999656633;69;5.0201416015625E-05;10 mA;
363.208018082988;0.177276611328125;13.7999999651583;70;4.89501953125E-05;10 mA;
363.408018082483;0.17913818359375;13.9999999646534;71;4.80041503906251E-05;10 mA;
363.608018081978;0.18096923828125;14.1999999641484;72;4.986572265625E-05;10 mA;
363.808018081473;0.182769775390625;14.3999999636435;73;5.08728027343749E-05;10 mA;
364.008018080968;0.1845703125;14.5999999631385;74;4.98352050781251E-05;10 mA;
364.208018080463;0.18634033203125;14.7999999626336;75;5.07202148437499E-05;10 mA;
364.408018079958;0.1881103515625;14.9999999621286;76;4.931640625E-05;10 mA;
364.608018079453;0.189849853515625;15.1999999616237;77;5.047607421875E-05;10 mA;
364.808018078948;0.19158935546875;15.3999999611187;78;4.76989746093751E-05;10 mA;
365.008018078443;0.19329833984375;15.5999999606138;79;4.7637939453125E-05;10 mA;
365.208018077938;0.19500732421875;15.7999999601088;80;4.93469238281249E-05;10 mA;
365.408018077433;0.19671630859375;15.9999999596039;81;4.7943115234375E-05;10 mA;
365.608018076928;0.1983642578125;16.1999999590989;82;5.05676269531249E-05;10 mA;
365.808018076424;0.200042724609375;16.399999958594;83;5.2978515625E-05;10 mA;
366.008018075919;0.20172119140625;16.599999958089;84;5.047607421875E-05;10 mA;
366.208018075414;0.203338623046875;16.7999999575841;85;5.18798828125E-05;10 mA;
366.408018074909;0.2049560546875;16.9999999570791;86;5.1422119140625E-05;10 mA;
366.608018074404;0.20654296875;17.1999999565742;87;5.14831542968749E-05;10 mA;
366.808018073899;0.20819091796875;17.3999999560692;88;4.81262207031249E-05;10 mA;
367.008018073394;0.20977783203125;17.5999999555643;89;4.86145019531251E-05;10 mA;
367.208018072889;0.211334228515625;17.7999999550593;90;4.95300292968751E-05;10 mA;
367.408018072384;0.212921142578125;17.9999999545544;91;4.8858642578125E-05;10 mA;
367.608018071879;0.214508056640625;18.1999999540494;92;4.8797607421875E-05;10 mA;
367.808018071374;0.216094970703125;18.3999999535445;93;4.90722656250001E-05;10 mA;
368.008018070869;0.217620849609375;18.5999999530395;94;5.0018310546875E-05;10 mA;
368.208018070364;0.21917724609375;18.7999999525346;95;5.01098632812499E-05;10 mA;
368.408018069859;0.220672607421875;18.9999999520296;96;4.8187255859375E-05;10 mA;
368.608018069354;0.222198486328125;19.1999999515247;97;4.901123046875E-05;10 mA;
368.808018068849;0.2237548828125;19.3999999510197;98;5.1116943359375E-05;10 mA;
369.008018068344;0.225250244140625;19.5999999505148;99;5.1422119140625E-05;10 mA;
369.208018067839;0.22674560546875;19.7999999500098;100;5.1605224609375E-05;10 mA;
369.408018067334;0.228271484375;19.9999999495049;101;5.1422119140625E-05;10 mA;
369.608018066829;0.229736328125;20.1999999489999;102;5.108642578125E-05;10 mA;
369.808018066325;0.231231689453125;20.399999948495;103;4.7576904296875E-05;10 mA;
370.00801806582;0.232696533203125;20.59999994799;104;5.1239013671875E-05;10 mA;
370.208018065315;0.234161376953125;20.799999947485;105;4.89501953125E-05;10 mA;
370.40801806481;0.235595703125;20.9999999469801;106;5.1116943359375E-05;10 mA;
370.608018064305;0.23699951171875;21.1999999464751;107;4.9468994140625E-05;10 mA;
370.8080180638;0.23846435546875;21.3999999459702;108;4.791259765625E-05;10 mA;
371.008018063295;0.239898681640625;21.5999999454652;109;4.8492431640625E-05;10 mA;
371.20801806279;0.241302490234375;21.7999999449603;110;5.078125E-05;10 mA;
371.408018062285;0.24273681640625;21.9999999444553;111;5.047607421875E-05;10 mA;
371.60801806178;0.244140625;22.1999999439504;112;5.0994873046875E-05;10 mA;
371.808018061275;0.24554443359375;22.3999999434454;113;4.852294921875E-05;10 mA;
372.00801806077;0.2469482421875;22.5999999429405;114;4.87365722656249E-05;10 mA;
372.208018060265;0.248321533203125;22.7999999424355;115;5.023193359375E-05;10 mA;
372.40801805976;0.24969482421875;22.9999999419306;116;4.89196777343751E-05;10 mA;
372.608018059255;0.251068115234375;23.1999999414256;117;4.9713134765625E-05;10 mA;
372.80801805875;0.25244140625;23.3999999409207;118;4.80041503906251E-05;10 mA;
373.008018058245;0.253814697265625;23.5999999404157;119;4.90722656250001E-05;10 mA;
373.20801805774;0.255157470703125;23.7999999399108;120;5.0933837890625E-05;10 mA;
373.408018057235;0.25653076171875;23.9999999394058;121;4.913330078125E-05;10 mA;
373.60801805673;0.25787353515625;24.1999999389009;122;5.07202148437499E-05;10 mA;
373.808018056225;0.25921630859375;24.3999999383959;123;5.05676269531249E-05;10 mA;
374.008018055721;0.260528564453125;24.599999937891;124;4.791259765625E-05;10 mA;
374.208018055216;0.2618408203125;24.799999937386;125;4.76989746093751E-05;10 mA;
374.408018054711;0.263153076171875;24.9999999368811;126;4.9468994140625E-05;10 mA;
374.608018054206;0.26446533203125;25.1999999363761;127;5.1300048828125E-05;10 mA;
374.808018053701;0.2657470703125;25.3999999358712;128;4.791259765625E-05;10 mA;
375.008018053196;0.26702880859375;25.5999999353662;129;4.98046874999999E-05;10 mA;
375.208018052691;0.26837158203125;25.7999999348613;130;4.76684570312499E-05;10 mA;
375.408018052186;0.269622802734375;25.9999999343563;131;4.8797607421875E-05;10 mA;
375.608018051681;0.270904541015625;26.1999999338514;132;4.833984375E-05;10 mA;
375.808018051176;0.272216796875;26.3999999333464;133;4.81262207031249E-05;10 mA;
376.008018050671;0.27349853515625;26.5999999328415;134;5.1116943359375E-05;10 mA;
376.208018050166;0.274749755859375;26.7999999323365;135;5.0323486328125E-05;10 mA;
376.408018049661;0.276031494140625;26.9999999318316;136;5.10253906249999E-05;10 mA;
376.608018049156;0.27728271484375;27.1999999313266;137;5.01403808593751E-05;10 mA;
376.808018048651;0.278564453125;27.3999999308217;138;4.7760009765625E-05;10 mA;
377.008018048146;0.279815673828125;27.5999999303167;139;4.89196777343751E-05;10 mA;
377.208018047641;0.28106689453125;27.7999999298117;140;4.840087890625E-05;10 mA;
377.408018047136;0.282318115234375;27.9999999293068;141;4.93469238281249E-05;10 mA;
377.608018046631;0.283538818359375;28.1999999288018;142;5.13305664062499E-05;10 mA;
377.808018046126;0.284759521484375;28.3999999282969;143;4.7149658203125E-05;10 mA;
378.008018045621;0.2860107421875;28.5999999277919;144;5.0048828125E-05;10 mA;
378.208018045117;0.287200927734375;28.799999927287;145;4.82788085937499E-05;10 mA;
378.408018044612;0.288421630859375;28.999999926782;146;4.962158203125E-05;10 mA;
378.608018044107;0.289642333984375;29.1999999262771;147;4.791259765625E-05;10 mA;
378.808018043602;0.29083251953125;29.3999999257721;148;4.91943359374999E-05;10 mA;
379.008018043097;0.29205322265625;29.5999999252672;149;4.89196777343751E-05;10 mA;
379.208018042592;0.293243408203125;29.7999999247622;150;5.0537109375E-05;10 mA;
379.408018042087;0.294464111328125;29.9999999242573;151;5.047607421875E-05;10 mA;
379.608018041582;0.295654296875;30.1999999237523;152;4.8980712890625E-05;10 mA;
379.808018041077;0.296844482421875;30.3999999232474;153;4.96520996093749E-05;10 mA;
380.008018040572;0.2979736328125;30.5999999227424;154;4.901123046875E-05;10 mA;
380.208018040067;0.29913330078125;30.7999999222375;155;4.986572265625E-05;10 mA;
380.408018039562;0.30029296875;30.9999999217325;156;4.9407958984375E-05;10 mA;
380.608018039057;0.301483154296875;31.1999999212276;157;5.02624511718749E-05;10 mA;
380.808018038552;0.302642822265625;31.3999999207226;158;4.931640625E-05;10 mA;
381.008018038047;0.30377197265625;31.5999999202177;159;4.90417480468749E-05;10 mA;
381.208018037542;0.304901123046875;31.7999999197127;160;5.0201416015625E-05;10 mA;
381.408018037037;0.306060791015625;31.9999999192078;161;4.9468994140625E-05;10 mA;
381.608018036532;0.30718994140625;32.1999999187028;162;4.8065185546875E-05;10 mA;
381.808018036027;0.308319091796875;32.3999999181979;163;5.05981445312501E-05;10 mA;
382.008018035522;0.309417724609375;32.5999999176929;164;4.93469238281249E-05;10 mA;
382.208018035018;0.310546875;32.799999917188;165;5.0811767578125E-05;10 mA;
382.408018034513;0.311676025390625;32.999999916683;166;5.1116943359375E-05;10 mA;
382.608018034008;0.31280517578125;33.1999999161781;167;4.92248535156251E-05;10 mA;
382.808018033503;0.313873291015625;33.3999999156731;168;4.9102783203125E-05;10 mA;
383.008018032998;0.31500244140625;33.5999999151682;169;4.96826171875001E-05;10 mA;
383.208018032493;0.31610107421875;33.7999999146632;170;4.87060546875E-05;10 mA;
383.408018031988;0.317230224609375;33.9999999141583;171;5.0201416015625E-05;10 mA;
383.608018031483;0.318328857421875;34.1999999136533;172;5.0201416015625E-05;10 mA;
383.808018030978;0.319427490234375;34.3999999131483;173;4.864501953125E-05;10 mA;
384.008018030473;0.320526123046875;34.5999999126434;174;4.94995117187499E-05;10 mA;
384.208018029968;0.32159423828125;34.7999999121384;175;4.913330078125E-05;10 mA;
384.408018029463;0.32269287109375;34.9999999116335;176;5.0201416015625E-05;10 mA;
384.608018028958;0.32379150390625;35.1999999111285;177;4.9591064453125E-05;10 mA;
384.808018028453;0.324859619140625;35.3999999106236;178;4.87060546875E-05;10 mA;
385.008018027948;0.325897216796875;35.5999999101186;179;4.7760009765625E-05;10 mA;
385.208018027443;0.32696533203125;35.7999999096137;180;4.75158691406249E-05;10 mA;
385.408018026938;0.3280029296875;35.9999999091087;181;4.8370361328125E-05;10 mA;
385.608018026433;0.329071044921875;36.1999999086038;182;5.22766113281251E-05;10 mA;
385.808018025928;0.330108642578125;36.3999999080988;183;4.72106933593749E-05;10 mA;
386.008018025423;0.331146240234375;36.5999999075939;184;5.2642822265625E-05;10 mA;
386.208018024918;0.33221435546875;36.7999999070889;185;4.8675537109375E-05;10 mA;
386.408018024414;0.333251953125;36.999999906584;186;5.02929687500001E-05;10 mA;
386.608018023909;0.33428955078125;37.199999906079;187;5.0079345703125E-05;10 mA;
386.808018023404;0.335357666015625;37.3999999055741;188;4.7760009765625E-05;10 mA;
387.008018022899;0.33636474609375;37.5999999050691;189;4.833984375E-05;10 mA;
387.208018022394;0.33740234375;37.7999999045642;190;4.79736328124999E-05;10 mA;
387.408018021889;0.33843994140625;37.9999999040592;191;5.23986816406249E-05;10 mA;
387.608018021384;0.339447021484375;38.1999999035543;192;5.04150390624999E-05;10 mA;
387.808018020879;0.340484619140625;38.3999999030493;193;4.76684570312499E-05;10 mA;
388.008018020374;0.34149169921875;38.5999999025444;194;5.2978515625E-05;10 mA;
388.208018019869;0.342498779296875;38.7999999020394;195;5.02929687500001E-05;10 mA;
388.408018019364;0.343536376953125;38.9999999015345;196;4.86145019531251E-05;10 mA;
388.608018018859;0.344512939453125;39.1999999010295;197;5.01098632812499E-05;10 mA;
388.808018018354;0.34552001953125;39.3999999005246;198;5.206298828125E-05;10 mA;
389.008018017849;0.34649658203125;39.5999999000196;199;4.82788085937499E-05;10 mA;
389.208018017344;0.347503662109375;39.7999998995147;200;4.7637939453125E-05;10 mA;
389.408018016839;0.3485107421875;39.9999998990097;201;4.6844482421875E-05;10 mA;
389.608018016334;0.3494873046875;40.1999998985048;202;4.85839843749999E-05;10 mA;
389.808018015829;0.3504638671875;40.3999998979998;203;4.8675537109375E-05;10 mA;
390.008018015324;0.3514404296875;40.5999998974949;204;4.77294921875E-05;10 mA;
390.208018014819;0.352447509765625;40.7999998969899;205;4.78210449218749E-05;10 mA;
390.408018014315;0.35345458984375;40.999999896485;206;4.9896240234375E-05;10 mA;
390.60801801381;0.35443115234375;41.19999989598;207;4.901123046875E-05;10 mA;
390.808018013305;0.35540771484375;41.399999895475;208;5.145263671875E-05;10 mA;
391.0080180128;0.35638427734375;41.5999998949701;209;4.89501953125E-05;10 mA;
391.208018012295;0.357391357421875;41.7999998944651;210;5.084228515625E-05;10 mA;
391.40801801179;0.358367919921875;41.9999998939602;211;5.1544189453125E-05;10 mA;
391.608018011285;0.359375;42.1999998934552;212;4.88891601562499E-05;10 mA;
391.80801801078;0.360321044921875;42.3999998929503;213;5.0933837890625E-05;10 mA;
392.008018010275;0.361297607421875;42.5999998924453;214;4.90417480468749E-05;10 mA;
392.20801800977;0.36224365234375;42.7999998919404;215;5.16662597656251E-05;10 mA;
392.408018009265;0.36322021484375;42.9999998914354;216;4.681396484375E-05;10 mA;
392.60801800876;0.364227294921875;43.1999998909305;217;4.78515625000001E-05;10 mA;
392.808018008255;0.36517333984375;43.3999998904255;218;4.901123046875E-05;10 mA;
393.00801800775;0.36614990234375;43.5999998899206;219;5.1116943359375E-05;10 mA;
393.208018007245;0.367156982421875;43.7999998894156;220;5.04455566406251E-05;10 mA;
393.40801800674;0.368072509765625;43.9999998889107;221;5.1239013671875E-05;10 mA;
393.608018006235;0.36907958984375;44.1999998884057;222;4.94384765625E-05;10 mA;
393.80801800573;0.370025634765625;44.3999998879008;223;4.6966552734375E-05;10 mA;
394.008018005225;0.371002197265625;44.5999998873958;224;4.75463867187501E-05;10 mA;
394.20801800472;0.3719482421875;44.7999998868909;225;5.08728027343749E-05;10 mA;
394.408018004215;0.372894287109375;44.9999998863859;226;4.931640625E-05;10 mA;
394.608018003711;0.37384033203125;45.199999885881;227;4.9163818359375E-05;10 mA;
394.808018003206;0.37481689453125;45.399999885376;228;4.93774414062501E-05;10 mA;
395.008018002701;0.375762939453125;45.5999998848711;229;5.07202148437499E-05;10 mA;
395.208018002196;0.376708984375;45.7999998843661;230;5.047607421875E-05;10 mA;
395.408018001691;0.377655029296875;45.9999998838612;231;4.9163818359375E-05;10 mA;
395.608018001186;0.378570556640625;46.1999998833562;232;5.04150390624999E-05;10 mA;
395.808018000681;0.3795166015625;46.3999998828513;233;4.74853515625E-05;10 mA;
396.008018000176;0.3804931640625;46.5999998823463;234;4.931640625E-05;10 mA;
396.208017999671;0.381439208984375;46.7999998818414;235;4.78515625000001E-05;10 mA;
396.408017999166;0.382354736328125;46.9999998813364;236;4.852294921875E-05;10 mA;
396.608017998661;0.38330078125;47.1999998808315;237;4.9407958984375E-05;10 mA;
396.808017998156;0.384246826171875;47.3999998803265;238;5.04455566406251E-05;10 mA;
397.008017997651;0.385162353515625;47.5999998798216;239;4.93774414062501E-05;10 mA;
397.208017997146;0.386138916015625;47.7999998793166;240;4.85839843749999E-05;10 mA;
397.408017996641;0.3870849609375;47.9999998788116;241;4.931640625E-05;10 mA;
397.608017996136;0.3880615234375;48.1999998783067;242;5.07202148437499E-05;10 mA;
397.808017995631;0.389007568359375;48.3999998778017;243;5.0018310546875E-05;10 mA;
398.008017995126;0.389984130859375;48.5999998772968;244;4.95300292968751E-05;10 mA;
398.208017994621;0.390899658203125;48.7999998767918;245;4.87365722656249E-05;10 mA;
398.408017994116;0.391845703125;48.9999998762869;246;5.0628662109375E-05;10 mA;
398.608017993611;0.392791748046875;49.1999998757819;247;4.81567382812501E-05;10 mA;
398.808017993107;0.39373779296875;49.399999875277;248;4.86145019531251E-05;10 mA;
399.008017992602;0.394683837890625;49.599999874772;249;4.7882080078125E-05;10 mA;
399.208017992097;0.3956298828125;49.7999998742671;250;5.0811767578125E-05;10 mA;
399.408017991592;0.396575927734375;49.9999998737621;251;4.99877929687501E-05;10 mA;
399.608017991087;0.397491455078125;50.1999998732572;252;4.974365234375E-05;10 mA;
399.808017990582;0.3984375;50.3999998727522;253;5.0994873046875E-05;10 mA;
400.008017990077;0.3994140625;50.5999998722473;254;4.9407958984375E-05;10 mA;
400.208017989572;0.40032958984375;50.7999998717423;255;4.7607421875E-05;10 mA;
400.408017989067;0.401275634765625;50.9999998712374;256;5.1239013671875E-05;10 mA;
400.608017988562;0.4022216796875;51.1999998707324;257;4.94995117187499E-05;10 mA;
400.808017988057;0.4031982421875;51.3999998702275;258;5.0048828125E-05;10 mA;
401.008017987552;0.40411376953125;51.5999998697225;259;4.8492431640625E-05;10 mA;
401.208017987047;0.405059814453125;51.7999998692176;260;5.096435546875E-05;10 mA;
401.408017986542;0.406005859375;51.9999998687126;261;4.925537109375E-05;10 mA;
401.608017986037;0.406951904296875;52.1999998682077;262;4.81567382812501E-05;10 mA;
401.808017985532;0.407867431640625;52.3999998677027;263;4.98352050781251E-05;10 mA;
402.008017985027;0.408843994140625;52.5999998671978;264;4.9560546875E-05;10 mA;
402.208017984522;0.409820556640625;52.7999998666928;265;5.096435546875E-05;10 mA;
402.408017984017;0.4107666015625;52.9999998661879;266;4.98046874999999E-05;10 mA;
402.608017983512;0.411712646484375;53.1999998656829;267;4.8980712890625E-05;10 mA;
402.808017983008;0.412689208984375;53.399999865178;268;4.9102783203125E-05;10 mA;
403.008017982503;0.41363525390625;53.599999864673;269;4.8492431640625E-05;10 mA;
403.208017981998;0.41461181640625;53.7999998641681;270;5.0323486328125E-05;10 mA;
403.408017981493;0.415557861328125;53.9999998636631;271;5.08728027343749E-05;10 mA;
403.608017980988;0.416473388671875;54.1999998631582;272;4.7882080078125E-05;10 mA;
403.808017980483;0.41741943359375;54.3999998626532;273;5.047607421875E-05;10 mA;
404.008017979978;0.41839599609375;54.5999998621483;274;4.9896240234375E-05;10 mA;
404.208017979473;0.4193115234375;54.7999998616433;275;5.08728027343749E-05;10 mA;
404.408017978968;0.420257568359375;54.9999998611383;276;5.02624511718749E-05;10 mA;
404.608017978463;0.421234130859375;55.1999998606334;277;4.96520996093749E-05;10 mA;
404.808017977958;0.42218017578125;55.3999998601284;278;4.974365234375E-05;10 mA;
405.008017977453;0.423126220703125;55.5999998596235;279;5.11779785156249E-05;10 mA;
405.208017976948;0.424072265625;55.7999998591185;280;5.13610839843751E-05;10 mA;
405.408017976443;0.425048828125;55.9999998586136;281;4.87670898437501E-05;10 mA;
405.608017975938;0.426025390625;56.1999998581086;282;4.931640625E-05;10 mA;
405.808017975433;0.426971435546875;56.3999998576037;283;4.92248535156251E-05;10 mA;
406.008017974928;0.42791748046875;56.5999998570987;284;5.0811767578125E-05;10 mA;
406.208017974423;0.42889404296875;56.7999998565938;285;4.8828125E-05;10 mA;
406.408017973918;0.42987060546875;56.9999998560888;286;4.7882080078125E-05;10 mA;
406.608017973413;0.43084716796875;57.1999998555839;287;4.94384765625E-05;10 mA;
406.808017972908;0.431793212890625;57.3999998550789;288;4.87670898437501E-05;10 mA;
407.008017972404;0.432769775390625;57.599999854574;289;4.90722656250001E-05;10 mA;
407.208017971899;0.4337158203125;57.799999854069;290;5.0323486328125E-05;10 mA;
407.408017971394;0.434661865234375;57.9999998535641;291;5.096435546875E-05;10 mA;
407.608017970889;0.435638427734375;58.1999998530591;292;4.8828125E-05;10 mA;
407.808017970384;0.43658447265625;58.3999998525542;293;4.81262207031249E-05;10 mA;
408.008017969879;0.43756103515625;58.5999998520492;294;5.02929687500001E-05;10 mA;
408.208017969374;0.438507080078125;58.7999998515443;295;4.9591064453125E-05;10 mA;
408.408017968869;0.439483642578125;58.9999998510393;296;5.0811767578125E-05;10 mA;
408.608017968364;0.440460205078125;59.1999998505344;297;4.96826171875001E-05;10 mA;
408.808017967859;0.44140625;59.3999998500294;298;5.023193359375E-05;10 mA;
409.008017967354;0.4423828125;59.5999998495245;299;4.8065185546875E-05;10 mA;
409.208017966849;0.443359375;59.7999998490195;300;4.87365722656249E-05;10 mA;
409.408017966344;0.4443359375;59.9999998485146;301;5.07507324218751E-05;10 mA;
409.608017965839;0.445281982421875;60.1999998480096;302;5.0994873046875E-05;10 mA;
409.808017965334;0.446258544921875;60.3999998475047;303;5.07202148437499E-05;10 mA;
410.008017964829;0.447235107421875;60.5999998469997;304;4.90417480468749E-05;10 mA;
410.208017964324;0.448211669921875;60.7999998464948;305;5.0018310546875E-05;10 mA;
410.408017963819;0.44915771484375;60.9999998459898;306;4.7576904296875E-05;10 mA;
410.608017963314;0.45013427734375;61.1999998454849;307;5.096435546875E-05;10 mA;
410.808017962809;0.451141357421875;61.3999998449799;308;4.98352050781251E-05;10 mA;
411.008017962305;0.45208740234375;61.599999844475;309;4.88891601562499E-05;10 mA;
411.2080179618;0.45306396484375;61.79999984397;310;4.9896240234375E-05;10 mA;
411.408017961295;0.454010009765625;61.999999843465;311;4.98046874999999E-05;10 mA;
411.60801796079;0.454986572265625;62.1999998429601;312;4.98352050781251E-05;10 mA;
411.808017960285;0.455963134765625;62.3999998424551;313;5.0994873046875E-05;10 mA;
412.00801795978;0.45697021484375;62.5999998419502;314;4.82788085937499E-05;10 mA;
412.208017959275;0.45794677734375;62.7999998414452;315;4.84619140625001E-05;10 mA;
412.40801795877;0.458892822265625;62.9999998409403;316;4.92248535156251E-05;10 mA;
412.608017958265;0.45989990234375;63.1999998404353;317;4.8095703125E-05;10 mA;
412.80801795776;0.46087646484375;63.3999998399304;318;5.09033203125001E-05;10 mA;
413.008017957255;0.461883544921875;63.5999998394254;319;4.94995117187499E-05;10 mA;
413.20801795675;0.462860107421875;63.7999998389205;320;4.87670898437501E-05;10 mA;
413.408017956245;0.4638671875;63.9999998384155;321;5.0048828125E-05;10 mA;
413.60801795574;0.46484375;64.1999998379106;322;4.91943359374999E-05;10 mA;
413.808017955235;0.465850830078125;64.3999998374056;323;5.084228515625E-05;10 mA;
414.00801795473;0.46685791015625;64.5999998369007;324;4.931640625E-05;10 mA;
414.208017954225;0.46783447265625;64.7999998363957;325;4.986572265625E-05;10 mA;
414.40801795372;0.4688720703125;64.9999998358908;326;5.047607421875E-05;10 mA;
414.608017953215;0.4698486328125;65.1999998353858;327;4.88891601562499E-05;10 mA;
414.80801795271;0.470855712890625;65.3999998348809;328;5.05676269531249E-05;10 mA;
415.008017952205;0.4718017578125;65.5999998343759;329;4.81262207031249E-05;10 mA;
415.208017951701;0.472808837890625;65.799999833871;330;4.9560546875E-05;10 mA;
415.408017951196;0.473785400390625;65.999999833366;331;4.86145019531251E-05;10 mA;
415.608017950691;0.47479248046875;66.1999998328611;332;4.962158203125E-05;10 mA;
415.808017950186;0.47576904296875;66.3999998323561;333;5.0018310546875E-05;10 mA;
416.008017949681;0.476715087890625;66.5999998318512;334;5.01098632812499E-05;10 mA;
416.208017949176;0.477752685546875;66.7999998313462;335;5.06591796875E-05;10 mA;
416.408017948671;0.478729248046875;66.9999998308413;336;5.0018310546875E-05;10 mA;
416.608017948166;0.479766845703125;67.1999998303363;337;5.0537109375E-05;10 mA;
416.808017947661;0.48077392578125;67.3999998298314;338;4.81262207031249E-05;10 mA;
417.008017947156;0.481719970703125;67.5999998293264;339;4.78515625000001E-05;10 mA;
417.208017946651;0.48272705078125;67.7999998288215;340;4.96520996093749E-05;10 mA;
417.408017946146;0.48370361328125;67.9999998283165;341;4.81567382812501E-05;10 mA;
417.608017945641;0.48468017578125;68.1999998278116;342;5.12084960937501E-05;10 mA;
417.808017945136;0.485687255859375;68.3999998273066;343;4.99572753906249E-05;10 mA;
418.008017944631;0.48663330078125;68.5999998268016;344;4.81262207031249E-05;10 mA;
418.208017944126;0.48760986328125;68.7999998262967;345;5.126953125E-05;10 mA;
418.408017943621;0.488616943359375;68.9999998257917;346;5.0811767578125E-05;10 mA;
418.608017943116;0.4896240234375;69.1999998252868;347;5.1544189453125E-05;10 mA;
418.808017942611;0.490631103515625;69.3999998247818;348;4.7454833984375E-05;10 mA;
419.008017942106;0.49163818359375;69.5999998242769;349;4.7332763671875E-05;10 mA;
419.208017941601;0.49267578125;69.7999998237719;350;5.126953125E-05;10 mA;
419.408017941097;0.493682861328125;69.999999823267;351;5.206298828125E-05;10 mA;
419.608017940592;0.49468994140625;70.199999822762;352;4.93774414062501E-05;10 mA;
419.808017940087;0.49566650390625;70.3999998222571;353;4.73937988281251E-05;10 mA;
420.008017939582;0.496673583984375;70.5999998217521;354;5.26123046875E-05;10 mA;
420.208017939077;0.497650146484375;70.7999998212472;355;4.84619140625001E-05;10 mA;
420.408017938572;0.498687744140625;70.9999998207422;356;5.22460937499999E-05;10 mA;
420.608017938067;0.49969482421875;71.1999998202373;357;5.19714355468751E-05;10 mA;
420.808017937562;0.50048828125;71.3999998197323;358;4.8492431640625E-05;10 mA;
421.008017937057;0.50140380859375;71.5999998192274;359;4.81567382812501E-05;10 mA;
421.208017936552;0.50262451171875;71.7999998187224;360;4.88891601562499E-05;10 mA;
421.408017936047;0.5035400390625;71.9999998182175;361;5.01403808593751E-05;10 mA;
421.608017935542;0.50445556640625;72.1999998177125;362;4.95300292968751E-05;10 mA;
421.808017935037;0.50567626953125;72.3999998172076;363;5.14831542968749E-05;10 mA;
422.008017934532;0.506591796875;72.5999998167026;364;5.126953125E-05;10 mA;
422.208017934027;0.50750732421875;72.7999998161977;365;4.98352050781251E-05;10 mA;
422.408017933522;0.50872802734375;72.9999998156927;366;5.0689697265625E-05;10 mA;
422.608017933017;0.5096435546875;73.1999998151878;367;4.78515625000001E-05;10 mA;
422.808017932512;0.51055908203125;73.3999998146828;368;4.962158203125E-05;10 mA;
423.008017932007;0.511474609375;73.5999998141779;369;4.9896240234375E-05;10 mA;
423.208017931502;0.5126953125;73.7999998136729;370;4.99267578125E-05;10 mA;
423.408017930998;0.51361083984375;73.999999813168;371;4.95300292968751E-05;10 mA;
423.608017930493;0.5145263671875;74.199999812663;372;4.931640625E-05;10 mA;
423.808017929988;0.5157470703125;74.3999998121581;373;4.8980712890625E-05;10 mA;
424.008017929483;0.51666259765625;74.5999998116531;374;4.833984375E-05;10 mA;
424.208017928978;0.517578125;74.7999998111482;375;4.9591064453125E-05;10 mA;
424.408017928473;0.518798828125;74.9999998106432;376;4.99572753906249E-05;10 mA;
424.608017927968;0.51971435546875;75.1999998101383;377;4.90417480468749E-05;10 mA;
424.808017927463;0.5206298828125;75.3999998096333;378;5.0018310546875E-05;10 mA;
425.008017926958;0.52154541015625;75.5999998091283;379;4.9163818359375E-05;10 mA;
425.208017926453;0.52276611328125;75.7999998086234;380;4.9896240234375E-05;10 mA;
425.408017925948;0.523681640625;75.9999998081184;381;4.96520996093749E-05;10 mA;
425.608017925443;0.52459716796875;76.1999998076135;382;4.925537109375E-05;10 mA;
425.808017924938;0.5255126953125;76.3999998071085;383;4.8858642578125E-05;10 mA;
426.008017924433;0.5267333984375;76.5999998066036;384;4.87060546875E-05;10 mA;
426.208017923928;0.52764892578125;76.7999998060986;385;5.05676269531249E-05;10 mA;
426.408017923423;0.528564453125;76.9999998055937;386;4.93774414062501E-05;10 mA;
426.608017922918;0.52978515625;77.1999998050887;387;4.99267578125E-05;10 mA;
426.808017922413;0.53070068359375;77.3999998045838;388;4.99267578125E-05;10 mA;
427.008017921908;0.5316162109375;77.5999998040788;389;5.047607421875E-05;10 mA;
427.208017921403;0.53253173828125;77.7999998035739;390;4.8370361328125E-05;10 mA;
427.408017920898;0.53375244140625;77.9999998030689;391;4.833984375E-05;10 mA;
427.608017920394;0.53466796875;78.199999802564;392;4.8095703125E-05;10 mA;
427.808017919889;0.53558349609375;78.399999802059;393;5.047607421875E-05;10 mA;
428.008017919384;0.5364990234375;78.5999998015541;394;4.8187255859375E-05;10 mA;
428.208017918879;0.5377197265625;78.7999998010491;395;4.84313964843749E-05;10 mA;
428.408017918374;0.53863525390625;78.9999998005442;396;4.8065185546875E-05;10 mA;
428.608017917869;0.53955078125;79.1999998000392;397;4.99267578125E-05;10 mA;
428.808017917364;0.54046630859375;79.3999997995343;398;5.108642578125E-05;10 mA;
429.008017916859;0.54168701171875;79.5999997990293;399;4.8065185546875E-05;10 mA;
429.208017916354;0.5426025390625;79.7999997985244;400;4.901123046875E-05;10 mA;
429.408017915849;0.54351806640625;79.9999997980194;401;5.05676269531249E-05;10 mA;
429.608017915344;0.54473876953125;80.1999997975145;402;5.16357421874999E-05;10 mA;
429.808017914839;0.545654296875;80.3999997970095;403;4.840087890625E-05;10 mA;
430.008017914334;0.54656982421875;80.5999997965046;404;4.901123046875E-05;10 mA;
430.208017913829;0.54779052734375;80.7999997959996;405;4.99877929687501E-05;10 mA;
430.408017913324;0.5487060546875;80.9999997954947;406;4.8980712890625E-05;10 mA;
430.608017912819;0.54962158203125;81.1999997949897;407;5.1422119140625E-05;10 mA;
430.808017912314;0.55084228515625;81.3999997944848;408;5.047607421875E-05;10 mA;
431.008017911809;0.5517578125;81.5999997939798;409;5.084228515625E-05;10 mA;
431.208017911304;0.55267333984375;81.7999997934749;410;4.9774169921875E-05;10 mA;
431.408017910799;0.5535888671875;81.9999997929699;411;5.10559082031251E-05;10 mA;
431.608017910295;0.5548095703125;82.199999792465;412;4.9774169921875E-05;10 mA;
431.80801790979;0.55572509765625;82.39999979196;413;5.01708984375E-05;10 mA;
432.008017909285;0.556640625;82.599999791455;414;4.931640625E-05;10 mA;
432.20801790878;0.55755615234375;82.7999997909501;415;5.0537109375E-05;10 mA;
432.408017908275;0.5584716796875;82.9999997904451;416;5.0811767578125E-05;10 mA;
432.60801790777;0.5596923828125;83.1999997899402;417;4.96826171875001E-05;10 mA;
432.808017907265;0.56060791015625;83.3999997894352;418;4.8675537109375E-05;10 mA;
433.00801790676;0.5615234375;83.5999997889303;419;5.04455566406251E-05;10 mA;
433.208017906255;0.56243896484375;83.7999997884253;420;4.864501953125E-05;10 mA;
433.40801790575;0.56365966796875;83.9999997879204;421;5.0506591796875E-05;10 mA;
433.608017905245;0.5645751953125;84.1999997874154;422;5.01403808593751E-05;10 mA;
433.80801790474;0.56549072265625;84.3999997869105;423;4.925537109375E-05;10 mA;
434.008017904235;0.56671142578125;84.5999997864055;424;4.8553466796875E-05;10 mA;
434.20801790373;0.567626953125;84.7999997859006;425;4.96520996093749E-05;10 mA;
434.408017903225;0.56854248046875;84.9999997853956;426;4.9713134765625E-05;10 mA;
434.60801790272;0.5694580078125;85.1999997848907;427;4.9896240234375E-05;10 mA;
434.808017902215;0.57037353515625;85.3999997843857;428;5.0201416015625E-05;10 mA;
435.00801790171;0.5712890625;85.5999997838808;429;4.8370361328125E-05;10 mA;
435.208017901205;0.572509765625;85.7999997833758;430;4.94995117187499E-05;10 mA;
435.4080179007;0.57342529296875;85.9999997828709;431;4.9774169921875E-05;10 mA;
435.608017900195;0.5743408203125;86.1999997823659;432;4.95300292968751E-05;10 mA;
435.808017899691;0.57525634765625;86.399999781861;433;4.840087890625E-05;10 mA;
436.008017899186;0.57647705078125;86.599999781356;434;5.05676269531249E-05;10 mA;
436.208017898681;0.577392578125;86.7999997808511;435;5.096435546875E-05;10 mA;
436.408017898176;0.57830810546875;86.9999997803461;436;5.04455566406251E-05;10 mA;
436.608017897671;0.5792236328125;87.1999997798412;437;4.98352050781251E-05;10 mA;
436.808017897166;0.58013916015625;87.3999997793362;438;4.9591064453125E-05;10 mA;
437.008017896661;0.58135986328125;87.5999997788313;439;5.1116943359375E-05;10 mA;
437.208017896156;0.582275390625;87.7999997783263;440;5.096435546875E-05;10 mA;
437.408017895651;0.58319091796875;87.9999997778214;441;4.9713134765625E-05;10 mA;
437.608017895146;0.5841064453125;88.1999997773164;442;4.925537109375E-05;10 mA;
437.808017894641;0.5853271484375;88.3999997768115;443;4.864501953125E-05;10 mA;
438.008017894136;0.58624267578125;88.5999997763065;444;4.840087890625E-05;10 mA;
438.208017893631;0.587158203125;88.7999997758016;445;5.02624511718749E-05;10 mA;
438.408017893126;0.58807373046875;88.9999997752966;446;4.9896240234375E-05;10 mA;
438.608017892621;0.58929443359375;89.1999997747916;447;4.931640625E-05;10 mA;
438.808017892116;0.5902099609375;89.3999997742867;448;5.0079345703125E-05;10 mA;
439.008017891611;0.59112548828125;89.5999997737817;449;4.78515625000001E-05;10 mA;
439.208017891106;0.592041015625;89.7999997732768;450;4.962158203125E-05;10 mA;
439.408017890601;0.59295654296875;89.9999997727718;451;4.99572753906249E-05;10 mA;
439.608017890096;0.59417724609375;90.1999997722669;452;4.96520996093749E-05;10 mA;
439.808017889591;0.5950927734375;90.3999997717619;453;4.925537109375E-05;10 mA;
440.008017889087;0.59600830078125;90.599999771257;454;5.0384521484375E-05;10 mA;
440.208017888582;0.596923828125;90.799999770752;455;4.913330078125E-05;10 mA;
440.408017888077;0.59814453125;90.9999997702471;456;5.05676269531249E-05;10 mA;
440.608017887572;0.59906005859375;91.1999997697421;457;4.95300292968751E-05;10 mA;
440.808017887067;0.5999755859375;91.3999997692372;458;4.99267578125E-05;10 mA;
441.008017886562;0.60089111328125;91.5999997687322;459;4.8553466796875E-05;10 mA;
441.208017886057;0.601806640625;91.7999997682273;460;4.8370361328125E-05;10 mA;
441.408017885552;0.60302734375;91.9999997677223;461;5.0323486328125E-05;10 mA;
441.608017885047;0.60394287109375;92.1999997672174;462;4.8095703125E-05;10 mA;
441.808017884542;0.6048583984375;92.3999997667124;463;4.95300292968751E-05;10 mA;
442.008017884037;0.60577392578125;92.5999997662075;464;5.0537109375E-05;10 mA;
442.208017883532;0.60699462890625;92.7999997657025;465;4.76989746093751E-05;10 mA;
442.408017883027;0.60791015625;92.9999997651976;466;4.913330078125E-05;10 mA;
442.608017882522;0.60882568359375;93.1999997646926;467;5.16357421874999E-05;10 mA;
442.808017882017;0.6097412109375;93.3999997641877;468;5.07202148437499E-05;10 mA;
443.008017881512;0.61065673828125;93.5999997636827;469;4.7454833984375E-05;10 mA;
443.208017881007;0.61187744140625;93.7999997631778;470;4.83093261718751E-05;10 mA;
443.408017880502;0.61279296875;93.9999997626728;471;4.99572753906249E-05;10 mA;
443.608017879997;0.61370849609375;94.1999997621679;472;4.9896240234375E-05;10 mA;
443.808017879492;0.6146240234375;94.3999997616629;473;5.1300048828125E-05;10 mA;
444.008017878988;0.61553955078125;94.599999761158;474;5.19409179687499E-05;10 mA;
444.208017878483;0.616455078125;94.799999760653;475;5.01403808593751E-05;10 mA;
444.408017877978;0.61737060546875;94.9999997601481;476;5.17883300781249E-05;10 mA;
444.608017877473;0.61859130859375;95.1999997596431;477;4.91943359374999E-05;10 mA;
444.808017876968;0.6195068359375;95.3999997591382;478;4.833984375E-05;10 mA;
445.008017876463;0.62042236328125;95.5999997586332;479;5.10253906249999E-05;10 mA;
445.208017875958;0.621337890625;95.7999997581283;480;4.7454833984375E-05;10 mA;
445.408017875453;0.62225341796875;95.9999997576233;481;4.75463867187501E-05;10 mA;
445.608017874948;0.62347412109375;96.1999997571183;482;4.840087890625E-05;10 mA;
445.808017874443;0.6243896484375;96.3999997566134;483;5.1605224609375E-05;10 mA;
446.008017873938;0.62530517578125;96.5999997561084;484;4.925537109375E-05;10 mA;
446.208017873433;0.626220703125;96.7999997556035;485;5.15136718750001E-05;10 mA;
446.408017872928;0.62713623046875;96.9999997550985;486;4.89501953125E-05;10 mA;
446.608017872423;0.62835693359375;97.1999997545936;487;4.974365234375E-05;10 mA;
446.808017871918;0.6292724609375;97.3999997540886;488;4.9774169921875E-05;10 mA;
447.008017871413;0.63018798828125;97.5999997535837;489;5.09033203125001E-05;10 mA;
447.208017870908;0.631103515625;97.7999997530787;490;4.901123046875E-05;10 mA;
447.408017870403;0.63201904296875;97.9999997525738;491;4.9713134765625E-05;10 mA;
447.608017869898;0.6329345703125;98.1999997520688;492;4.931640625E-05;10 mA;
447.808017869393;0.63385009765625;98.3999997515639;493;4.9102783203125E-05;10 mA;
448.008017868888;0.63507080078125;98.5999997510589;494;5.023193359375E-05;10 mA;
448.208017868384;0.635986328125;98.799999750554;495;5.1544189453125E-05;10 mA;
448.408017867879;0.63690185546875;98.999999750049;496;5.0506591796875E-05;10 mA;
448.608017867374;0.6378173828125;99.1999997495441;497;4.7607421875E-05;10 mA;
448.808017866869;0.63873291015625;99.3999997490391;498;4.9896240234375E-05;10 mA;
449.008017866364;0.6396484375;99.5999997485342;499;5.1849365234375E-05;10 mA;
449.208017865859;0.64056396484375;99.7999997480292;500;4.931640625E-05;10 mA;
449.408017865354;0.6414794921875;99.9999997475243;501;5.0689697265625E-05;10 mA;
449.608017864849;0.64239501953125;100.199999747019;502;4.76989746093751E-05;10 mA;
449.808017864344;0.643310546875;100.399999746514;503;4.99877929687501E-05;10 mA;
450.008017863839;0.64453125;100.599999746009;504;5.18798828125E-05;10 mA;
450.208017863334;0.64544677734375;100.799999745504;505;4.9713134765625E-05;10 mA;
450.408017862829;0.6463623046875;100.999999745;506;4.931640625E-05;10 mA;
450.608017862324;0.64727783203125;101.199999744495;507;4.76684570312499E-05;10 mA;
450.808017861819;0.648193359375;101.39999974399;508;4.913330078125E-05;10 mA;
451.008017861314;0.64910888671875;101.599999743485;509;5.0201416015625E-05;10 mA;
451.208017860809;0.6500244140625;101.79999974298;510;5.18188476562501E-05;10 mA;
451.408017860304;0.65093994140625;101.999999742475;511;4.7607421875E-05;10 mA;
451.608017859799;0.65185546875;102.19999974197;512;5.078125E-05;10 mA;
451.808017859294;0.65277099609375;102.399999741465;513;5.0323486328125E-05;10 mA;
452.008017858789;0.6536865234375;102.59999974096;514;4.94384765625E-05;10 mA;
452.208017858285;0.65460205078125;102.799999740455;515;5.01403808593751E-05;10 mA;
452.40801785778;0.65582275390625;102.99999973995;516;4.78515625000001E-05;10 mA;
452.608017857275;0.65673828125;103.199999739445;517;5.084228515625E-05;10 mA;
452.80801785677;0.65765380859375;103.39999973894;518;4.90722656250001E-05;10 mA;
453.008017856265;0.6585693359375;103.599999738435;519;5.0384521484375E-05;10 mA;
453.20801785576;0.65948486328125;103.79999973793;520;4.77294921875E-05;10 mA;
453.408017855255;0.660400390625;103.999999737425;521;4.7576904296875E-05;10 mA;
453.60801785475;0.66131591796875;104.19999973692;522;5.16357421874999E-05;10 mA;
453.808017854245;0.6622314453125;104.399999736415;523;5.22460937499999E-05;10 mA;
454.00801785374;0.6634521484375;104.59999973591;524;5.0048828125E-05;10 mA;
454.208017853235;0.66436767578125;104.799999735405;525;4.9896240234375E-05;10 mA;
454.40801785273;0.665283203125;104.9999997349;526;4.791259765625E-05;10 mA;
454.608017852225;0.66619873046875;105.199999734396;527;4.803466796875E-05;10 mA;
454.80801785172;0.6671142578125;105.399999733891;528;5.07507324218751E-05;10 mA;
455.008017851215;0.66802978515625;105.599999733386;529;4.9896240234375E-05;10 mA;
455.20801785071;0.66925048828125;105.799999732881;530;5.24291992187501E-05;10 mA;
455.408017850205;0.670166015625;105.999999732376;531;5.279541015625E-05;10 mA;
455.6080178497;0.67108154296875;106.199999731871;532;5.0537109375E-05;10 mA;
455.808017849195;0.6719970703125;106.399999731366;533;4.9560546875E-05;10 mA;
456.00801784869;0.67291259765625;106.599999730861;534;4.913330078125E-05;10 mA;
456.208017848185;0.673828125;106.799999730356;535;4.87670898437501E-05;10 mA;
456.408017847681;0.67474365234375;106.999999729851;536;5.04150390624999E-05;10 mA;
456.608017847176;0.6756591796875;107.199999729346;537;5.04455566406251E-05;10 mA;
456.808017846671;0.67657470703125;107.399999728841;538;5.01708984375E-05;10 mA;
457.008017846166;0.677490234375;107.599999728336;539;5.0537109375E-05;10 mA;
457.208017845661;0.67840576171875;107.799999727831;540;4.87670898437501E-05;10 mA;
457.408017845156;0.6793212890625;107.999999727326;541;4.90417480468749E-05;10 mA;
457.608017844651;0.68023681640625;108.199999726821;542;4.864501953125E-05;10 mA;
457.808017844146;0.68115234375;108.399999726316;543;5.13610839843751E-05;10 mA;
458.008017843641;0.68206787109375;108.599999725811;544;5.13916015625E-05;10 mA;
458.208017843136;0.6829833984375;108.799999725306;545;4.9468994140625E-05;10 mA;
458.408017842631;0.68389892578125;108.999999724801;546;4.76989746093751E-05;10 mA;
458.608017842126;0.68511962890625;109.199999724297;547;4.9407958984375E-05;10 mA;
458.808017841621;0.68572998046875;109.399999723792;548;4.91943359374999E-05;10 mA;
459.008017841116;0.68695068359375;109.599999723287;549;4.99877929687501E-05;10 mA;
459.208017840611;0.6878662109375;109.799999722782;550;5.18188476562501E-05;10 mA;
459.408017840106;0.6884765625;109.999999722277;551;4.9896240234375E-05;10 mA;
459.608017839601;0.689697265625;110.199999721772;552;5.035400390625E-05;10 mA;
459.808017839096;0.69061279296875;110.399999721267;553;4.7943115234375E-05;10 mA;
460.008017838591;0.6915283203125;110.599999720762;554;4.8980712890625E-05;10 mA;
460.208017838086;0.69244384765625;110.799999720257;555;4.87365722656249E-05;10 mA;
460.408017837581;0.69305419921875;110.999999719752;556;5.169677734375E-05;10 mA;
460.608017837077;0.69427490234375;111.199999719247;557;4.925537109375E-05;10 mA;
460.808017836572;0.6951904296875;111.399999718742;558;4.779052734375E-05;10 mA;
461.008017836067;0.69610595703125;111.599999718237;559;5.0689697265625E-05;10 mA;
461.208017835562;0.697021484375;111.799999717732;560;5.1849365234375E-05;10 mA;
461.408017835057;0.69793701171875;111.999999717227;561;5.1116943359375E-05;10 mA;
461.608017834552;0.6988525390625;112.199999716722;562;4.7637939453125E-05;10 mA;
461.808017834047;0.699462890625;112.399999716217;563;5.10253906249999E-05;10 mA;
462.008017833542;0.70037841796875;112.599999715712;564;4.80041503906251E-05;10 mA;
462.208017833037;0.7012939453125;112.799999715207;565;4.8980712890625E-05;10 mA;
462.408017832532;0.70220947265625;112.999999714702;566;4.9163818359375E-05;10 mA;
462.608017832027;0.703125;113.199999714197;567;5.0537109375E-05;10 mA;
462.808017831522;0.70404052734375;113.399999713693;568;4.82788085937499E-05;10 mA;
463.008017831017;0.7049560546875;113.599999713188;569;4.9468994140625E-05;10 mA;
463.208017830512;0.70587158203125;113.799999712683;570;5.0079345703125E-05;10 mA;
463.408017830007;0.706787109375;113.999999712178;571;5.0201416015625E-05;10 mA;
463.608017829502;0.70770263671875;114.199999711673;572;4.9896240234375E-05;10 mA;
463.808017828997;0.70831298828125;114.399999711168;573;5.16662597656251E-05;10 mA;
464.008017828492;0.709228515625;114.599999710663;574;4.75158691406249E-05;10 mA;
464.208017827987;0.71014404296875;114.799999710158;575;5.04150390624999E-05;10 mA;
464.408017827482;0.7110595703125;114.999999709653;576;4.80041503906251E-05;10 mA;
464.608017826978;0.71197509765625;115.199999709148;577;4.87670898437501E-05;10 mA;
464.808017826473;0.712890625;115.399999708643;578;4.81567382812501E-05;10 mA;
465.008017825968;0.71380615234375;115.599999708138;579;4.82788085937499E-05;10 mA;
465.208017825463;0.7147216796875;115.799999707633;580;5.13610839843751E-05;10 mA;
465.408017824958;0.71563720703125;115.999999707128;581;4.95300292968751E-05;10 mA;
465.608017824453;0.716552734375;116.199999706623;582;4.8553466796875E-05;10 mA;
465.808017823948;0.7171630859375;116.399999706118;583;5.19714355468751E-05;10 mA;
466.008017823443;0.71807861328125;116.599999705613;584;4.79736328124999E-05;10 mA;
466.208017822938;0.718994140625;116.799999705108;585;5.11779785156249E-05;10 mA;
466.408017822433;0.71990966796875;116.999999704603;586;5.108642578125E-05;10 mA;
466.608017821928;0.7208251953125;117.199999704098;587;5.14831542968749E-05;10 mA;
466.808017821423;0.72174072265625;117.399999703593;588;4.99877929687501E-05;10 mA;
467.008017820918;0.72265625;117.599999703089;589;5.07507324218751E-05;10 mA;
467.208017820413;0.72357177734375;117.799999702584;590;4.89196777343751E-05;10 mA;
467.408017819908;0.72418212890625;117.999999702079;591;5.16357421874999E-05;10 mA;
467.608017819403;0.72509765625;118.199999701574;592;4.9102783203125E-05;10 mA;
467.808017818898;0.72601318359375;118.399999701069;593;4.913330078125E-05;10 mA;
468.008017818393;0.7269287109375;118.599999700564;594;4.833984375E-05;10 mA;
468.208017817888;0.72784423828125;118.799999700059;595;4.87670898437501E-05;10 mA;
468.408017817383;0.728759765625;118.999999699554;596;4.8370361328125E-05;10 mA;
468.608017816878;0.72967529296875;119.199999699049;597;4.94384765625E-05;10 mA;
468.808017816374;0.7305908203125;119.399999698544;598;4.80041503906251E-05;10 mA;
469.008017815869;0.73150634765625;119.599999698039;599;5.169677734375E-05;10 mA;
469.208017815364;0.73211669921875;119.799999697534;600;5.05676269531249E-05;10 mA;
469.408017814859;0.7330322265625;119.999999697029;601;4.95300292968751E-05;10 mA;
469.608017814354;0.73394775390625;120.199999696524;602;5.1544189453125E-05;10 mA;
469.808017813849;0.73486328125;120.399999696019;603;4.9163818359375E-05;10 mA;
470.008017813344;0.7354736328125;120.599999695514;604;5.1544189453125E-05;10 mA;
470.208017812839;0.73638916015625;120.799999695009;605;4.93774414062501E-05;10 mA;
470.408017812334;0.7373046875;120.999999694504;606;4.8980712890625E-05;10 mA;
470.608017811829;0.7379150390625;121.199999693999;607;4.8980712890625E-05;10 mA;
470.808017811324;0.73883056640625;121.399999693494;608;5.0201416015625E-05;10 mA;
471.008017810819;0.73974609375;121.59999969299;609;5.0079345703125E-05;10 mA;
471.208017810314;0.7403564453125;121.799999692485;610;4.84313964843749E-05;10 mA;
471.408017809809;0.74127197265625;121.99999969198;611;5.047607421875E-05;10 mA;
471.608017809304;0.7421875;122.199999691475;612;5.169677734375E-05;10 mA;
471.808017808799;0.74310302734375;122.39999969097;613;5.084228515625E-05;10 mA;
472.008017808294;0.74371337890625;122.599999690465;614;4.901123046875E-05;10 mA;
472.208017807789;0.74462890625;122.79999968996;615;4.93469238281249E-05;10 mA;
472.408017807284;0.7452392578125;122.999999689455;616;5.0628662109375E-05;10 mA;
472.608017806779;0.74615478515625;123.19999968895;617;4.7882080078125E-05;10 mA;
472.808017806275;0.7470703125;123.399999688445;618;4.8095703125E-05;10 mA;
473.00801780577;0.7476806640625;123.59999968794;619;5.26123046875E-05;10 mA;
473.208017805265;0.74859619140625;123.799999687435;620;5.1422119140625E-05;10 mA;
473.40801780476;0.74920654296875;123.99999968693;621;4.8828125E-05;10 mA;
473.608017804255;0.7501220703125;124.199999686425;622;4.791259765625E-05;10 mA;
473.80801780375;0.75103759765625;124.39999968592;623;4.76989746093751E-05;10 mA;
474.008017803245;0.75164794921875;124.599999685415;624;4.9102783203125E-05;10 mA;
474.20801780274;0.7525634765625;124.79999968491;625;5.0384521484375E-05;10 mA;
474.408017802235;0.75347900390625;124.999999684405;626;5.01403808593751E-05;10 mA;
474.60801780173;0.75408935546875;125.1999996839;627;4.94384765625E-05;10 mA;
474.808017801225;0.7550048828125;125.399999683395;628;5.31616210937499E-05;10 mA;
475.00801780072;0.755615234375;125.59999968289;629;5.3070068359375E-05;10 mA;
475.208017800215;0.75653076171875;125.799999682386;630;4.93469238281249E-05;10 mA;
475.40801779971;0.75714111328125;125.999999681881;631;5.02929687500001E-05;10 mA;
475.608017799205;0.758056640625;126.199999681376;632;5.18188476562501E-05;10 mA;
475.8080177987;0.75897216796875;126.399999680871;633;5.2764892578125E-05;10 mA;
476.008017798195;0.75958251953125;126.599999680366;634;4.9163818359375E-05;10 mA;
476.20801779769;0.760498046875;126.799999679861;635;4.9163818359375E-05;10 mA;
476.408017797185;0.7611083984375;126.999999679356;636;4.95300292968751E-05;10 mA;
476.60801779668;0.76202392578125;127.199999678851;637;5.3131103515625E-05;10 mA;
476.808017796175;0.762939453125;127.399999678346;638;5.19409179687499E-05;10 mA;
477.008017795671;0.7635498046875;127.599999677841;639;4.901123046875E-05;10 mA;
477.208017795166;0.76446533203125;127.799999677336;640;5.04455566406251E-05;10 mA;
477.408017794661;0.76507568359375;127.999999676831;641;4.89501953125E-05;10 mA;
477.608017794156;0.7659912109375;128.199999676326;642;5.3253173828125E-05;10 mA;
477.808017793651;0.7666015625;128.399999675821;643;5.2490234375E-05;10 mA;
478.008017793146;0.7672119140625;128.599999675316;644;4.93469238281249E-05;10 mA;
478.208017792641;0.76812744140625;128.799999674811;645;5.0994873046875E-05;10 mA;
478.408017792136;0.76904296875;128.999999674306;646;5.07507324218751E-05;10 mA;
478.608017791631;0.7696533203125;129.199999673801;647;5.0933837890625E-05;10 mA;
478.808017791126;0.77056884765625;129.399999673296;648;4.94384765625E-05;10 mA;
479.008017790621;0.77117919921875;129.599999672791;649;4.95300292968751E-05;10 mA;
479.208017790116;0.7720947265625;129.799999672287;650;4.95300292968751E-05;10 mA;
479.408017789611;0.77301025390625;129.999999671782;651;4.87060546875E-05;10 mA;
479.608017789106;0.77362060546875;130.199999671277;652;5.0201416015625E-05;10 mA;
479.808017788601;0.77423095703125;130.399999670772;653;4.7607421875E-05;10 mA;
480.008017788096;0.775146484375;130.599999670267;654;4.75463867187501E-05;10 mA;
480.208017787591;0.7757568359375;130.799999669762;655;4.742431640625E-05;10 mA;
480.408017787086;0.77667236328125;130.999999669257;656;5.0689697265625E-05;10 mA;
480.608017786581;0.77728271484375;131.199999668752;657;4.78210449218749E-05;10 mA;
480.808017786076;0.77789306640625;131.399999668247;658;4.9591064453125E-05;10 mA;
481.008017785571;0.77850341796875;131.599999667742;659;4.925537109375E-05;10 mA;
481.208017785067;0.7794189453125;131.799999667237;660;5.11474609375E-05;10 mA;
481.408017784562;0.780029296875;131.999999666732;661;4.718017578125E-05;10 mA;
481.608017784057;0.78094482421875;132.199999666227;662;4.840087890625E-05;10 mA;
481.808017783552;0.78155517578125;132.399999665722;663;5.1116943359375E-05;10 mA;
482.008017783047;0.78216552734375;132.599999665217;664;5.0689697265625E-05;10 mA;
482.208017782542;0.78277587890625;132.799999664712;665;5.1239013671875E-05;10 mA;
482.408017782037;0.78338623046875;132.999999664207;666;4.94384765625E-05;10 mA;
482.608017781532;0.78399658203125;133.199999663702;667;5.14831542968749E-05;10 mA;
482.808017781027;0.78460693359375;133.399999663197;668;4.974365234375E-05;10 mA;
483.008017780522;0.7855224609375;133.599999662692;669;4.8187255859375E-05;10 mA;
483.208017780017;0.7861328125;133.799999662187;670;4.931640625E-05;10 mA;
483.408017779512;0.7867431640625;133.999999661683;671;5.1605224609375E-05;10 mA;
483.608017779007;0.78765869140625;134.199999661178;672;4.82788085937499E-05;10 mA;
483.808017778502;0.78826904296875;134.399999660673;673;5.126953125E-05;10 mA;
484.008017777997;0.78887939453125;134.599999660168;674;4.82177734375E-05;10 mA;
484.208017777492;0.789794921875;134.799999659663;675;4.803466796875E-05;10 mA;
484.408017776987;0.7904052734375;134.999999659158;676;4.99877929687501E-05;10 mA;
484.608017776482;0.791015625;135.199999658653;677;4.7943115234375E-05;10 mA;
484.808017775977;0.7916259765625;135.399999658148;678;4.75463867187501E-05;10 mA;
485.008017775472;0.79254150390625;135.599999657643;679;5.14831542968749E-05;10 mA;
485.208017774968;0.79315185546875;135.799999657138;680;4.99572753906249E-05;10 mA;
485.408017774463;0.79376220703125;135.999999656633;681;4.974365234375E-05;10 mA;
485.608017773958;0.79437255859375;136.199999656128;682;4.9285888671875E-05;10 mA;
485.808017773453;0.79498291015625;136.399999655623;683;5.15136718750001E-05;10 mA;
486.008017772948;0.7958984375;136.599999655118;684;5.126953125E-05;10 mA;
486.208017772443;0.7965087890625;136.799999654613;685;4.8492431640625E-05;10 mA;
486.408017771938;0.797119140625;136.999999654108;686;4.85839843749999E-05;10 mA;
486.608017771433;0.7977294921875;137.199999653603;687;5.07202148437499E-05;10 mA;
486.808017770928;0.79864501953125;137.399999653098;688;4.84313964843749E-05;10 mA;
487.008017770423;0.79925537109375;137.599999652593;689;4.913330078125E-05;10 mA;
487.208017769918;0.79986572265625;137.799999652088;690;5.12084960937501E-05;10 mA;
487.408017769413;0.80047607421875;137.999999651583;691;4.83093261718751E-05;10 mA;
487.608017768908;0.80108642578125;138.199999651079;692;4.901123046875E-05;10 mA;
487.808017768403;0.80169677734375;138.399999650574;693;4.7943115234375E-05;10 mA;
488.008017767898;0.80230712890625;138.599999650069;694;4.8248291015625E-05;10 mA;
488.208017767393;0.80291748046875;138.799999649564;695;5.04150390624999E-05;10 mA;
488.408017766888;0.80352783203125;138.999999649059;696;5.06591796875E-05;10 mA;
488.608017766383;0.80413818359375;139.199999648554;697;5.04455566406251E-05;10 mA;
488.808017765878;0.8050537109375;139.399999648049;698;4.791259765625E-05;10 mA;
489.008017765373;0.8056640625;139.599999647544;699;5.1239013671875E-05;10 mA;
489.208017764868;0.8062744140625;139.799999647039;700;4.8095703125E-05;10 mA;
489.408017764364;0.806884765625;139.999999646534;701;4.94995117187499E-05;10 mA;
489.608017763859;0.8074951171875;140.199999646029;702;4.99877929687501E-05;10 mA;
489.808017763354;0.80810546875;140.399999645524;703;4.962158203125E-05;10 mA;
490.008017762849;0.8087158203125;140.599999645019;704;4.9468994140625E-05;10 mA;
490.208017762344;0.809326171875;140.799999644514;705;5.08728027343749E-05;10 mA;
490.408017761839;0.8099365234375;140.999999644009;706;4.88891601562499E-05;10 mA;
490.608017761334;0.810546875;141.199999643504;707;4.8858642578125E-05;10 mA;
490.808017760829;0.8111572265625;141.399999642999;708;4.986572265625E-05;10 mA;
491.008017760324;0.81207275390625;141.599999642494;709;4.791259765625E-05;10 mA;
491.208017759819;0.8123779296875;141.799999641989;710;5.10559082031251E-05;10 mA;
491.408017759314;0.81329345703125;141.999999641484;711;4.925537109375E-05;10 mA;
491.608017758809;0.8135986328125;142.19999964098;712;5.01708984375E-05;10 mA;
491.808017758304;0.814208984375;142.399999640475;713;4.7943115234375E-05;10 mA;
492.008017757799;0.8148193359375;142.59999963997;714;5.084228515625E-05;10 mA;
492.208017757294;0.8154296875;142.799999639465;715;4.803466796875E-05;10 mA;
492.408017756789;0.8160400390625;142.99999963896;716;4.9774169921875E-05;10 mA;
492.608017756284;0.816650390625;143.199999638455;717;5.11779785156249E-05;10 mA;
492.808017755779;0.8172607421875;143.39999963795;718;4.974365234375E-05;10 mA;
493.008017755274;0.81787109375;143.599999637445;719;4.88891601562499E-05;10 mA;
493.208017754769;0.8184814453125;143.79999963694;720;4.913330078125E-05;10 mA;
493.408017754265;0.81878662109375;143.999999636435;721;4.75158691406249E-05;10 mA;
493.60801775376;0.81939697265625;144.19999963593;722;4.81567382812501E-05;10 mA;
493.808017753255;0.82000732421875;144.399999635425;723;5.0018310546875E-05;10 mA;
494.00801775275;0.82061767578125;144.59999963492;724;4.90722656250001E-05;10 mA;
494.208017752245;0.82122802734375;144.799999634415;725;4.9896240234375E-05;10 mA;
494.40801775174;0.82183837890625;144.99999963391;726;4.986572265625E-05;10 mA;
494.608017751235;0.82244873046875;145.199999633405;727;4.9774169921875E-05;10 mA;
494.80801775073;0.82305908203125;145.3999996329;728;5.1300048828125E-05;10 mA;
495.008017750225;0.82366943359375;145.599999632395;729;4.9560546875E-05;10 mA;
495.20801774972;0.82427978515625;145.79999963189;730;4.83093261718751E-05;10 mA;
495.408017749215;0.8245849609375;145.999999631385;731;4.99572753906249E-05;10 mA;
495.60801774871;0.8251953125;146.19999963088;732;4.840087890625E-05;10 mA;
495.808017748205;0.8258056640625;146.399999630376;733;4.82177734375E-05;10 mA;
496.0080177477;0.82611083984375;146.599999629871;734;5.09033203125001E-05;10 mA;
496.208017747195;0.82672119140625;146.799999629366;735;5.0994873046875E-05;10 mA;
496.40801774669;0.82733154296875;146.999999628861;736;4.78210449218749E-05;10 mA;
496.608017746185;0.82794189453125;147.199999628356;737;4.8095703125E-05;10 mA;
496.80801774568;0.82855224609375;147.399999627851;738;5.0811767578125E-05;10 mA;
497.008017745175;0.828857421875;147.599999627346;739;4.80041503906251E-05;10 mA;
497.20801774467;0.8294677734375;147.799999626841;740;5.02624511718749E-05;10 mA;
497.408017744165;0.830078125;147.999999626336;741;5.0048828125E-05;10 mA;
497.608017743661;0.8306884765625;148.199999625831;742;4.9407958984375E-05;10 mA;
497.808017743156;0.83099365234375;148.399999625326;743;4.840087890625E-05;10 mA;
498.008017742651;0.83160400390625;148.599999624821;744;4.91943359374999E-05;10 mA;
498.208017742146;0.83221435546875;148.799999624316;745;5.1605224609375E-05;10 mA;
498.408017741641;0.83282470703125;148.999999623811;746;4.8858642578125E-05;10 mA;
498.608017741136;0.8331298828125;149.199999623306;747;5.12084960937501E-05;10 mA;
498.808017740631;0.833740234375;149.399999622801;748;5.10253906249999E-05;10 mA;
499.008017740126;0.8343505859375;149.599999622296;749;5.169677734375E-05;10 mA;
499.208017739621;0.83465576171875;149.799999621791;750;4.7943115234375E-05;10 mA;
499.408017739116;0.83526611328125;149.999999621286;751;4.82177734375E-05;10 mA;
499.608017738611;0.8355712890625;150.199999620781;752;4.730224609375E-05;10 mA;
499.808017738106;0.836181640625;150.399999620277;753;4.94384765625E-05;10 mA;
500.008017737601;0.8367919921875;150.599999619772;754;4.913330078125E-05;10 mA;
500.208017737096;0.83709716796875;150.799999619267;755;4.7943115234375E-05;10 mA;
500.408017736591;0.83770751953125;150.999999618762;756;4.95300292968751E-05;10 mA;
500.608017736086;0.83831787109375;151.199999618257;757;5.1300048828125E-05;10 mA;
500.808017735581;0.838623046875;151.399999617752;758;4.69055175781249E-05;10 mA;
501.008017735076;0.8392333984375;151.599999617247;759;4.7271728515625E-05;10 mA;
501.208017734571;0.83984375;151.799999616742;760;5.30395507812501E-05;10 mA;
501.408017734066;0.84014892578125;151.999999616237;761;5.08728027343749E-05;10 mA;
501.608017733561;0.84075927734375;152.199999615732;762;5.30395507812501E-05;10 mA;
501.808017733057;0.84136962890625;152.399999615227;763;5.2978515625E-05;10 mA;
502.008017732552;0.8416748046875;152.599999614722;764;4.99877929687501E-05;10 mA;
502.208017732047;0.84228515625;152.799999614217;765;5.0323486328125E-05;10 mA;
502.408017731542;0.8428955078125;152.999999613712;766;4.9591064453125E-05;10 mA;
502.608017731037;0.84320068359375;153.199999613207;767;4.78515625000001E-05;10 mA;
502.808017730532;0.84381103515625;153.399999612702;768;4.9407958984375E-05;10 mA;
503.008017730027;0.8441162109375;153.599999612197;769;4.8187255859375E-05;10 mA;
503.208017729522;0.8447265625;153.799999611692;770;4.9102783203125E-05;10 mA;
503.408017729017;0.84503173828125;153.999999611187;771;4.962158203125E-05;10 mA;
503.608017728512;0.84564208984375;154.199999610682;772;4.931640625E-05;10 mA;
503.808017728007;0.845947265625;154.399999610177;773;4.8980712890625E-05;10 mA;
504.008017727502;0.8465576171875;154.599999609673;774;4.93774414062501E-05;10 mA;
504.208017726997;0.84716796875;154.799999609168;775;5.04150390624999E-05;10 mA;
504.408017726492;0.84747314453125;154.999999608663;776;4.99267578125E-05;10 mA;
504.608017725987;0.8477783203125;155.199999608158;777;4.9591064453125E-05;10 mA;
504.808017725482;0.848388671875;155.399999607653;778;4.88891601562499E-05;10 mA;
505.008017724977;0.84869384765625;155.599999607148;779;4.8828125E-05;10 mA;
505.208017724472;0.84930419921875;155.799999606643;780;5.047607421875E-05;10 mA;
505.408017723967;0.849609375;155.999999606138;781;5.12084960937501E-05;10 mA;
505.608017723462;0.84991455078125;156.199999605633;782;4.78515625000001E-05;10 mA;
505.808017722958;0.85052490234375;156.399999605128;783;5.13305664062499E-05;10 mA;WE(1).Potential > 0,85 V
506.008017722453;0.850830078125;156.599999604623;784;5.0079345703125E-05;10 mA;WE(1).Potential > 0,85 V
506.208017721948;0.85113525390625;156.799999604118;785;4.81567382812501E-05;10 mA;WE(1).Potential > 0,85 V
506.408017721443;0.85174560546875;156.999999603613;786;4.9774169921875E-05;10 mA;WE(1).Potential > 0,85 V
