Time (s);WE(1).Potential (V);Corrected time (s);Index;WE(1).Current (A);Current range;Cutoffs
120.129746696702;0.016009521484375;0;1;8.9752197265625E-05;10 mA;WE(1).Potential > 0,85 V , WE(1).Potential > 0,85 V , WE(1).Potential > 0,85 V , WE(1).Potential > 0,85 V
120.329746696197;0.032855224609375;0.199999999495049;2;9.1522216796875E-05;10 mA;
120.529746695692;0.0469024658203125;0.399999998990097;3;9.033203125E-05;10 mA;
120.729746695187;0.059295654296875;0.599999998485146;4;8.9874267578125E-05;10 mA;
120.929746694682;0.070465087890625;0.799999997980194;5;9.2193603515625E-05;10 mA;
121.129746694177;0.080718994140625;0.999999997475243;6;9.4207763671875E-05;10 mA;
121.329746693672;0.09027099609375;1.19999999697029;7;9.00878906249999E-05;10 mA;
121.529746693167;0.099212646484375;1.39999999646534;8;9.16442871093751E-05;10 mA;
121.729746692662;0.107666015625;1.59999999596039;9;8.9569091796875E-05;10 mA;
121.929746692157;0.115631103515625;1.79999999545544;10;9.23767089843749E-05;10 mA;
122.129746691652;0.12322998046875;1.99999999495049;11;9.173583984375E-05;10 mA;
122.329746691147;0.130462646484375;2.19999999444553;12;8.990478515625E-05;10 mA;
122.529746690642;0.137420654296875;2.39999999394058;13;9.36279296875001E-05;10 mA;
122.729746690137;0.144073486328125;2.59999999343563;14;8.9569091796875E-05;10 mA;
122.929746689632;0.150482177734375;2.79999999293068;15;9.0301513671875E-05;10 mA;
123.129746689127;0.156707763671875;2.99999999242573;16;9.4482421875E-05;10 mA;
123.329746688622;0.1627197265625;3.19999999192078;17;9.5184326171875E-05;10 mA;
123.529746688117;0.168548583984375;3.39999999141583;18;9.25598144531251E-05;10 mA;
123.729746687612;0.1741943359375;3.59999999091087;19;9.063720703125E-05;10 mA;
123.929746687107;0.179656982421875;3.79999999040592;20;8.99353027343749E-05;10 mA;
124.129746686603;0.185028076171875;3.99999998990097;21;9.2010498046875E-05;10 mA;
124.329746686098;0.19024658203125;4.19999998939602;22;9.1217041015625E-05;10 mA;
124.529746685593;0.1953125;4.39999998889107;23;8.984375E-05;10 mA;
124.729746685088;0.20025634765625;4.59999998838612;24;8.9874267578125E-05;10 mA;
124.929746684583;0.205078125;4.79999998788116;25;9.5367431640625E-05;10 mA;
125.129746684078;0.209808349609375;4.99999998737621;26;9.46044921875E-05;10 mA;
125.329746683573;0.214447021484375;5.19999998687126;27;9.112548828125E-05;10 mA;
125.529746683068;0.218994140625;5.39999998636631;28;9.1827392578125E-05;10 mA;
125.729746682563;0.223419189453125;5.59999998586136;29;9.13391113281251E-05;10 mA;
125.929746682058;0.22784423828125;5.79999998535641;30;9.14916992187501E-05;10 mA;
126.129746681553;0.232147216796875;5.99999998485146;31;8.97216796875E-05;10 mA;
126.329746681048;0.236328125;6.1999999843465;32;9.33837890625E-05;10 mA;
126.529746680543;0.240509033203125;6.39999998384155;33;9.16748046875E-05;10 mA;
126.729746680038;0.244598388671875;6.5999999833366;34;9.3353271484375E-05;10 mA;
126.929746679533;0.2486572265625;6.79999998283165;35;9.37499999999999E-05;10 mA;
127.129746679028;0.252593994140625;6.9999999823267;36;9.33837890625E-05;10 mA;
127.329746678523;0.256500244140625;7.19999998182175;37;9.3414306640625E-05;10 mA;
127.529746678018;0.2603759765625;7.3999999813168;38;9.0911865234375E-05;10 mA;
127.729746677513;0.264251708984375;7.59999998081184;39;8.99658203125001E-05;10 mA;
127.929746677008;0.267974853515625;7.79999998030689;40;9.1888427734375E-05;10 mA;
128.129746676503;0.271697998046875;7.99999997980194;41;9.4146728515625E-05;10 mA;
128.329746675999;0.275421142578125;8.19999997929699;42;9.0667724609375E-05;10 mA;
128.529746675494;0.279052734375;8.39999997879204;43;9.30175781250001E-05;10 mA;
128.729746674989;0.28265380859375;8.59999997828709;44;9.11560058593749E-05;10 mA;
128.929746674484;0.28619384765625;8.79999997778214;45;9.326171875E-05;10 mA;
129.129746673979;0.289703369140625;8.99999997727718;46;9.30175781250001E-05;10 mA;
129.329746673474;0.29315185546875;9.19999997677223;47;9.0057373046875E-05;10 mA;
129.529746672969;0.29656982421875;9.39999997626728;48;9.27124023437501E-05;10 mA;
129.729746672464;0.299957275390625;9.59999997576233;49;9.1827392578125E-05;10 mA;
129.929746671959;0.303314208984375;9.79999997525738;50;9.21630859375E-05;10 mA;
130.129746671454;0.306610107421875;9.99999997475243;51;9.08813476562501E-05;10 mA;
130.329746670949;0.309906005859375;10.1999999742475;52;9.02404785156249E-05;10 mA;
130.529746670444;0.313140869140625;10.3999999737425;53;9.0301513671875E-05;10 mA;
130.729746669939;0.31634521484375;10.5999999732376;54;9.37499999999999E-05;10 mA;
130.929746669434;0.319549560546875;10.7999999727326;55;9.37499999999999E-05;10 mA;
131.129746668929;0.322662353515625;10.9999999722277;56;9.173583984375E-05;10 mA;
131.329746668424;0.325714111328125;11.1999999717227;57;9.136962890625E-05;10 mA;
131.529746667919;0.32879638671875;11.3999999712178;58;9.033203125E-05;10 mA;
131.729746667414;0.331787109375;11.5999999707128;59;9.1217041015625E-05;10 mA;
131.929746666909;0.33477783203125;11.7999999702079;60;9.3658447265625E-05;10 mA;
132.129746666404;0.3377685546875;11.9999999697029;61;9.1278076171875E-05;10 mA;
132.3297466659;0.340728759765625;12.199999969198;62;9.02709960937501E-05;10 mA;
132.529746665395;0.343658447265625;12.399999968693;63;9.27734375E-05;10 mA;
132.72974666489;0.346527099609375;12.5999999681881;64;9.1400146484375E-05;10 mA;
132.929746664385;0.34942626953125;12.7999999676831;65;9.2041015625E-05;10 mA;
133.12974666388;0.352264404296875;12.9999999671782;66;9.04235839843751E-05;10 mA;
133.329746663375;0.3551025390625;13.1999999666732;67;9.368896484375E-05;10 mA;
133.52974666287;0.35791015625;13.3999999661683;68;9.3719482421875E-05;10 mA;
133.729746662365;0.360687255859375;13.5999999656633;69;9.4024658203125E-05;10 mA;
133.92974666186;0.363494873046875;13.7999999651583;70;9.2041015625E-05;10 mA;
134.129746661355;0.366241455078125;13.9999999646534;71;9.3719482421875E-05;10 mA;
134.32974666085;0.36895751953125;14.1999999641484;72;9.075927734375E-05;10 mA;
134.529746660345;0.37164306640625;14.3999999636435;73;9.0667724609375E-05;10 mA;
134.72974665984;0.374359130859375;14.5999999631385;74;9.0362548828125E-05;10 mA;
134.929746659335;0.377044677734375;14.7999999626336;75;9.04541015625E-05;10 mA;
135.12974665883;0.379730224609375;14.9999999621286;76;9.4024658203125E-05;10 mA;
135.329746658325;0.38238525390625;15.1999999616237;77;9.37499999999999E-05;10 mA;
135.52974665782;0.385040283203125;15.3999999611187;78;9.1583251953125E-05;10 mA;
135.729746657315;0.3876953125;15.5999999606138;79;9.3719482421875E-05;10 mA;
135.92974665681;0.390289306640625;15.7999999601088;80;9.16442871093751E-05;10 mA;
136.129746656305;0.39288330078125;15.9999999596039;81;9.246826171875E-05;10 mA;
136.3297466558;0.395538330078125;16.1999999590989;82;9.02709960937501E-05;10 mA;
136.529746655296;0.39813232421875;16.399999958594;83;9.063720703125E-05;10 mA;
136.729746654791;0.4007568359375;16.599999958089;84;9.228515625E-05;10 mA;
136.929746654286;0.403411865234375;16.7999999575841;85;9.356689453125E-05;10 mA;
137.129746653781;0.406036376953125;16.9999999570791;86;9.2041015625E-05;10 mA;
137.329746653276;0.40863037109375;17.1999999565742;87;9.0667724609375E-05;10 mA;
137.529746652771;0.4112548828125;17.3999999560692;88;9.3048095703125E-05;10 mA;
137.729746652266;0.413848876953125;17.5999999555643;89;9.05761718750001E-05;10 mA;
137.929746651761;0.41644287109375;17.7999999550593;90;9.0606689453125E-05;10 mA;
138.129746651256;0.4190673828125;17.9999999545544;91;9.31701660156251E-05;10 mA;
138.329746650751;0.42169189453125;18.1999999540494;92;9.05761718750001E-05;10 mA;
138.529746650246;0.42431640625;18.3999999535445;93;9.228515625E-05;10 mA;
138.729746649741;0.42694091796875;18.5999999530395;94;9.10339355468751E-05;10 mA;
138.929746649236;0.429534912109375;18.7999999525346;95;9.381103515625E-05;10 mA;
139.129746648731;0.432159423828125;18.9999999520296;96;9.26818847656249E-05;10 mA;
139.329746648226;0.434814453125;19.1999999515247;97;9.368896484375E-05;10 mA;
139.529746647721;0.43743896484375;19.3999999510197;98;9.326171875E-05;10 mA;
139.729746647216;0.440093994140625;19.5999999505148;99;9.228515625E-05;10 mA;
139.929746646711;0.442718505859375;19.7999999500098;100;9.1583251953125E-05;10 mA;
140.129746646206;0.44537353515625;19.9999999495049;101;9.222412109375E-05;10 mA;
140.329746645701;0.448028564453125;20.1999999489999;102;9.356689453125E-05;10 mA;
140.529746645196;0.45068359375;20.399999948495;103;9.33227539062501E-05;10 mA;
140.729746644692;0.45330810546875;20.59999994799;104;9.259033203125E-05;10 mA;
140.929746644187;0.45599365234375;20.799999947485;105;9.14306640625E-05;10 mA;
141.129746643682;0.458648681640625;20.9999999469801;106;9.19189453124999E-05;10 mA;
141.329746643177;0.4613037109375;21.1999999464751;107;9.0789794921875E-05;10 mA;
141.529746642672;0.4639892578125;21.3999999459702;108;9.08203125E-05;10 mA;
141.729746642167;0.466705322265625;21.5999999454652;109;9.26818847656249E-05;10 mA;
141.929746641662;0.469390869140625;21.7999999449603;110;9.08203125E-05;10 mA;
142.129746641157;0.4720458984375;21.9999999444553;111;9.31701660156251E-05;10 mA;
142.329746640652;0.4747314453125;22.1999999439504;112;9.11560058593749E-05;10 mA;
142.529746640147;0.4774169921875;22.3999999434454;113;9.2437744140625E-05;10 mA;
142.729746639642;0.480133056640625;22.5999999429405;114;9.37805175781251E-05;10 mA;
142.929746639137;0.48284912109375;22.7999999424355;115;9.37499999999999E-05;10 mA;
143.129746638632;0.48553466796875;22.9999999419306;116;9.3505859375E-05;10 mA;
143.329746638127;0.488250732421875;23.1999999414256;117;9.246826171875E-05;10 mA;
143.529746637622;0.490966796875;23.3999999409207;118;9.2041015625E-05;10 mA;
143.729746637117;0.49365234375;23.5999999404157;119;9.3719482421875E-05;10 mA;
143.929746636612;0.496368408203125;23.7999999399108;120;9.23767089843749E-05;10 mA;
144.129746636107;0.499053955078125;23.9999999394058;121;9.2315673828125E-05;10 mA;
144.329746635602;0.501708984375;24.1999999389009;122;9.100341796875E-05;10 mA;
144.529746635097;0.504150390625;24.3999999383959;123;9.36279296875001E-05;10 mA;
144.729746634593;0.50689697265625;24.599999937891;124;9.36279296875001E-05;10 mA;
144.929746634088;0.5096435546875;24.799999937386;125;9.2315673828125E-05;10 mA;
145.129746633583;0.51239013671875;24.9999999368811;126;9.2193603515625E-05;10 mA;
145.329746633078;0.51513671875;25.1999999363761;127;9.40856933593751E-05;10 mA;
145.529746632573;0.517578125;25.3999999358712;128;9.37805175781251E-05;10 mA;
145.729746632068;0.52032470703125;25.5999999353662;129;9.37805175781251E-05;10 mA;
145.929746631563;0.5230712890625;25.7999999348613;130;9.222412109375E-05;10 mA;
146.129746631058;0.52581787109375;25.9999999343563;131;9.22546386718751E-05;10 mA;
146.329746630553;0.528564453125;26.1999999338514;132;9.2193603515625E-05;10 mA;
146.529746630048;0.53131103515625;26.3999999333464;133;9.1705322265625E-05;10 mA;
146.729746629543;0.5340576171875;26.5999999328415;134;9.09423828125E-05;10 mA;
146.929746629038;0.5364990234375;26.7999999323365;135;9.39331054687501E-05;10 mA;
147.129746628533;0.53924560546875;26.9999999318316;136;9.100341796875E-05;10 mA;
147.329746628028;0.5419921875;27.1999999313266;137;9.34448242187499E-05;10 mA;
147.529746627523;0.54443359375;27.3999999308217;138;9.033203125E-05;10 mA;
147.729746627018;0.54718017578125;27.5999999303167;139;9.05761718750001E-05;10 mA;
147.929746626513;0.5499267578125;27.7999999298117;140;9.1217041015625E-05;10 mA;
148.129746626008;0.5523681640625;27.9999999293068;141;9.10339355468751E-05;10 mA;
148.329746625503;0.55511474609375;28.1999999288018;142;9.3719482421875E-05;10 mA;
148.529746624998;0.55755615234375;28.3999999282969;143;9.1827392578125E-05;10 mA;
148.729746624493;0.560302734375;28.5999999277919;144;9.2803955078125E-05;10 mA;
148.929746623989;0.56304931640625;28.799999927287;145;9.4146728515625E-05;10 mA;
149.129746623484;0.56549072265625;28.999999926782;146;9.34753417968751E-05;10 mA;
149.329746622979;0.5682373046875;29.1999999262771;147;9.051513671875E-05;10 mA;
149.529746622474;0.5706787109375;29.3999999257721;148;9.1278076171875E-05;10 mA;
149.729746621969;0.57342529296875;29.5999999252672;149;9.3994140625E-05;10 mA;
149.929746621464;0.57586669921875;29.7999999247622;150;9.4146728515625E-05;10 mA;
150.129746620959;0.57861328125;29.9999999242573;151;9.07287597656251E-05;10 mA;
150.329746620454;0.5810546875;30.1999999237523;152;9.08203125E-05;10 mA;
150.529746619949;0.58380126953125;30.3999999232474;153;9.24072265625001E-05;10 mA;
150.729746619444;0.58624267578125;30.5999999227424;154;9.34448242187499E-05;10 mA;
150.929746618939;0.5889892578125;30.7999999222375;155;9.25292968749999E-05;10 mA;
151.129746618434;0.5914306640625;30.9999999217325;156;9.14611816406249E-05;10 mA;
151.329746617929;0.59417724609375;31.1999999212276;157;9.21020507812501E-05;10 mA;
151.529746617424;0.59661865234375;31.3999999207226;158;9.0667724609375E-05;10 mA;
151.729746616919;0.59906005859375;31.5999999202177;159;9.26513671875E-05;10 mA;
151.929746616414;0.601806640625;31.7999999197127;160;9.42382812500001E-05;10 mA;
152.129746615909;0.604248046875;31.9999999192078;161;9.0179443359375E-05;10 mA;
152.329746615404;0.60699462890625;32.1999999187028;162;9.0667724609375E-05;10 mA;
152.529746614899;0.60943603515625;32.3999999181979;163;9.45434570312501E-05;10 mA;
152.729746614394;0.6121826171875;32.5999999176929;164;9.039306640625E-05;10 mA;
152.92974661389;0.6146240234375;32.799999917188;165;9.3353271484375E-05;10 mA;
153.129746613385;0.6170654296875;32.999999916683;166;9.20715332031249E-05;10 mA;
153.32974661288;0.61981201171875;33.1999999161781;167;9.3658447265625E-05;10 mA;
153.529746612375;0.62225341796875;33.3999999156731;168;9.136962890625E-05;10 mA;
153.72974661187;0.62469482421875;33.5999999151682;169;9.04235839843751E-05;10 mA;
153.929746611365;0.62713623046875;33.7999999146632;170;9.173583984375E-05;10 mA;
154.12974661086;0.6298828125;33.9999999141583;171;9.16748046875E-05;10 mA;
154.329746610355;0.63232421875;34.1999999136533;172;9.39025878906249E-05;10 mA;
154.52974660985;0.634765625;34.3999999131483;173;9.28344726562499E-05;10 mA;
154.729746609345;0.63720703125;34.5999999126434;174;9.13085937499999E-05;10 mA;
154.92974660884;0.6396484375;34.7999999121384;175;8.99658203125001E-05;10 mA;
155.129746608335;0.64208984375;34.9999999116335;176;9.52758789062499E-05;10 mA;
155.32974660783;0.64483642578125;35.1999999111285;177;9.01184082031251E-05;10 mA;
155.529746607325;0.64697265625;35.3999999106236;178;9.37499999999999E-05;10 mA;
155.72974660682;0.6494140625;35.5999999101186;179;9.2926025390625E-05;10 mA;
155.929746606315;0.65185546875;35.7999999096137;180;9.11865234375001E-05;10 mA;
156.12974660581;0.654296875;35.9999999091087;181;9.173583984375E-05;10 mA;
156.329746605305;0.65673828125;36.1999999086038;182;9.1522216796875E-05;10 mA;
156.5297466048;0.6591796875;36.3999999080988;183;9.1827392578125E-05;10 mA;
156.729746604295;0.66162109375;36.5999999075939;184;9.1888427734375E-05;10 mA;
156.92974660379;0.6640625;36.7999999070889;185;9.246826171875E-05;10 mA;
157.129746603286;0.66650390625;36.999999906584;186;9.5428466796875E-05;10 mA;
157.329746602781;0.6689453125;37.199999906079;187;9.34448242187499E-05;10 mA;
157.529746602276;0.67108154296875;37.3999999055741;188;9.0606689453125E-05;10 mA;
157.729746601771;0.67352294921875;37.5999999050691;189;9.161376953125E-05;10 mA;
157.929746601266;0.6756591796875;37.7999999045642;190;9.002685546875E-05;10 mA;
158.129746600761;0.6781005859375;37.9999999040592;191;9.368896484375E-05;10 mA;
158.329746600256;0.68023681640625;38.1999999035543;192;9.27124023437501E-05;10 mA;
158.529746599751;0.68267822265625;38.3999999030493;193;9.25598144531251E-05;10 mA;
158.729746599246;0.684814453125;38.5999999025444;194;9.16442871093751E-05;10 mA;
158.929746598741;0.687255859375;38.7999999020394;195;9.4024658203125E-05;10 mA;
159.129746598236;0.68939208984375;38.9999999015345;196;9.063720703125E-05;10 mA;
159.329746597731;0.69183349609375;39.1999999010295;197;9.4207763671875E-05;10 mA;
159.529746597226;0.6939697265625;39.3999999005246;198;9.2132568359375E-05;10 mA;
159.729746596721;0.6964111328125;39.5999999000196;199;9.16748046875E-05;10 mA;
159.929746596216;0.69854736328125;39.7999998995147;200;9.3048095703125E-05;10 mA;
160.129746595711;0.70098876953125;39.9999998990097;201;9.039306640625E-05;10 mA;
160.329746595206;0.70343017578125;40.1999998985048;202;9.22546386718751E-05;10 mA;
160.529746594701;0.70556640625;40.3999998979998;203;9.356689453125E-05;10 mA;
160.729746594196;0.7080078125;40.5999998974949;204;9.039306640625E-05;10 mA;
160.929746593691;0.71014404296875;40.7999998969899;205;9.24072265625001E-05;10 mA;
161.129746593186;0.7122802734375;40.999999896485;206;9.42382812500001E-05;10 mA;
161.329746592682;0.71441650390625;41.19999989598;207;9.31701660156251E-05;10 mA;
161.529746592177;0.716552734375;41.399999895475;208;9.37499999999999E-05;10 mA;
161.729746591672;0.71868896484375;41.5999998949701;209;9.3658447265625E-05;10 mA;
161.929746591167;0.72113037109375;41.7999998944651;210;9.2132568359375E-05;10 mA;
162.129746590662;0.7232666015625;41.9999998939602;211;9.26818847656249E-05;10 mA;
162.329746590157;0.72540283203125;42.1999998934552;212;9.381103515625E-05;10 mA;
162.529746589652;0.7275390625;42.3999998929503;213;9.40551757812499E-05;10 mA;
162.729746589147;0.72998046875;42.5999998924453;214;9.2041015625E-05;10 mA;
162.929746588642;0.73211669921875;42.7999998919404;215;9.3536376953125E-05;10 mA;
163.129746588137;0.7342529296875;42.9999998914354;216;9.1064453125E-05;10 mA;
163.329746587632;0.73638916015625;43.1999998909305;217;9.26818847656249E-05;10 mA;
163.529746587127;0.73822021484375;43.3999998904255;218;9.3597412109375E-05;10 mA;
163.729746586622;0.7403564453125;43.5999998899206;219;9.28649902343751E-05;10 mA;
163.929746586117;0.74249267578125;43.7999998894156;220;9.28344726562499E-05;10 mA;
164.129746585612;0.74462890625;43.9999998889107;221;9.42382812500001E-05;10 mA;
164.329746585107;0.74676513671875;44.1999998884057;222;9.0911865234375E-05;10 mA;
164.529746584602;0.7489013671875;44.3999998879008;223;9.06982421874999E-05;10 mA;
164.729746584097;0.750732421875;44.5999998873958;224;9.33227539062501E-05;10 mA;
164.929746583592;0.75286865234375;44.7999998868909;225;9.13085937499999E-05;10 mA;
165.129746583087;0.75469970703125;44.9999998863859;226;9.08203125E-05;10 mA;
165.329746582583;0.7568359375;45.199999885881;227;9.11865234375001E-05;10 mA;
165.529746582078;0.7586669921875;45.399999885376;228;9.259033203125E-05;10 mA;
165.729746581573;0.76080322265625;45.5999998848711;229;9.307861328125E-05;10 mA;
165.929746581068;0.76263427734375;45.7999998843661;230;9.3963623046875E-05;10 mA;
166.129746580563;0.7647705078125;45.9999998838612;231;9.2315673828125E-05;10 mA;
166.329746580058;0.7666015625;46.1999998833562;232;9.136962890625E-05;10 mA;
166.529746579553;0.76873779296875;46.3999998828513;233;9.36279296875001E-05;10 mA;
166.729746579048;0.77056884765625;46.5999998823463;234;9.234619140625E-05;10 mA;
166.929746578543;0.77239990234375;46.7999998818414;235;9.4268798828125E-05;10 mA;
167.129746578038;0.7745361328125;46.9999998813364;236;9.39331054687501E-05;10 mA;
167.329746577533;0.7763671875;47.1999998808315;237;9.37499999999999E-05;10 mA;
167.529746577028;0.77850341796875;47.3999998803265;238;9.34448242187499E-05;10 mA;
167.729746576523;0.78033447265625;47.5999998798216;239;9.246826171875E-05;10 mA;
167.929746576018;0.78216552734375;47.7999998793166;240;9.31701660156251E-05;10 mA;
168.129746575513;0.78399658203125;47.9999998788116;241;9.40551757812499E-05;10 mA;
168.329746575008;0.78582763671875;48.1999998783067;242;9.3658447265625E-05;10 mA;
168.529746574503;0.78765869140625;48.3999998778017;243;9.08813476562501E-05;10 mA;
168.729746573998;0.789794921875;48.5999998772968;244;9.2041015625E-05;10 mA;
168.929746573493;0.79132080078125;48.7999998767918;245;9.26818847656249E-05;10 mA;
169.129746572988;0.79315185546875;48.9999998762869;246;9.246826171875E-05;10 mA;
169.329746572483;0.7952880859375;49.1999998757819;247;9.33837890625E-05;10 mA;
169.529746571979;0.79681396484375;49.399999875277;248;9.3994140625E-05;10 mA;
169.729746571474;0.79864501953125;49.599999874772;249;9.2010498046875E-05;10 mA;
169.929746570969;0.80047607421875;49.7999998742671;250;9.17968750000001E-05;10 mA;
170.129746570464;0.802001953125;49.9999998737621;251;9.222412109375E-05;10 mA;
170.329746569959;0.8038330078125;50.1999998732572;252;9.30175781250001E-05;10 mA;
170.529746569454;0.8056640625;50.3999998727522;253;9.2437744140625E-05;10 mA;
170.729746568949;0.80718994140625;50.5999998722473;254;9.417724609375E-05;10 mA;
170.929746568444;0.8087158203125;50.7999998717423;255;9.1827392578125E-05;10 mA;
171.129746567939;0.810546875;50.9999998712374;256;9.26818847656249E-05;10 mA;
171.329746567434;0.8123779296875;51.1999998707324;257;9.381103515625E-05;10 mA;
171.529746566929;0.81390380859375;51.3999998702275;258;9.26513671875E-05;10 mA;
171.729746566424;0.8154296875;51.5999998697225;259;9.31701660156251E-05;10 mA;
171.929746565919;0.81695556640625;51.7999998692176;260;9.08508300781249E-05;10 mA;
172.129746565414;0.8184814453125;51.9999998687126;261;9.3353271484375E-05;10 mA;
172.329746564909;0.8203125;52.1999998682077;262;9.32922363281249E-05;10 mA;
172.529746564404;0.82183837890625;52.3999998677027;263;9.08508300781249E-05;10 mA;
172.729746563899;0.8233642578125;52.5999998671978;264;9.27124023437501E-05;10 mA;
172.929746563394;0.8251953125;52.7999998666928;265;9.368896484375E-05;10 mA;
173.129746562889;0.82672119140625;52.9999998661879;266;9.26513671875E-05;10 mA;
173.329746562384;0.8282470703125;53.1999998656829;267;9.259033203125E-05;10 mA;
173.52974656188;0.82977294921875;53.399999865178;268;9.033203125E-05;10 mA;
173.729746561375;0.831298828125;53.599999864673;269;9.50927734375E-05;10 mA;
173.92974656087;0.83251953125;53.7999998641681;270;9.3048095703125E-05;10 mA;
174.129746560365;0.83404541015625;53.9999998636631;271;9.100341796875E-05;10 mA;
174.32974655986;0.8355712890625;54.1999998631582;272;9.1888427734375E-05;10 mA;
174.529746559355;0.83709716796875;54.3999998626532;273;9.37805175781251E-05;10 mA;
174.72974655885;0.838623046875;54.5999998621483;274;8.99658203125001E-05;10 mA;
174.929746558345;0.83984375;54.7999998616433;275;9.28955078125E-05;10 mA;
175.12974655784;0.84136962890625;54.9999998611383;276;9.368896484375E-05;10 mA;
175.329746557335;0.8428955078125;55.1999998606334;277;9.24072265625001E-05;10 mA;
175.52974655683;0.8441162109375;55.3999998601284;278;9.4146728515625E-05;10 mA;
175.729746556325;0.84564208984375;55.5999998596235;279;9.0911865234375E-05;10 mA;
175.92974655582;0.84716796875;55.7999998591185;280;9.3719482421875E-05;10 mA;
176.129746555315;0.848388671875;55.9999998586136;281;9.2315673828125E-05;10 mA;
176.32974655481;0.849609375;56.1999998581086;282;9.2437744140625E-05;10 mA;
176.529746554305;0.85113525390625;56.3999998576037;283;9.3536376953125E-05;10 mA;WE(1).Potential > 0,85 V
176.7297465538;0.85235595703125;56.5999998570987;284;9.368896484375E-05;10 mA;WE(1).Potential > 0,85 V
176.929746553295;0.85357666015625;56.7999998565938;285;9.3353271484375E-05;10 mA;WE(1).Potential > 0,85 V
177.12974655279;0.85479736328125;56.9999998560888;286;9.356689453125E-05;10 mA;WE(1).Potential > 0,85 V
