Time (s);WE(1).Potential (V);Corrected time (s);Index;WE(1).Current (A);Current range;Cutoffs
177.329812552285;0.77117919921875;0;1;-7.92846679687501E-05;10 mA;WE(1).Potential < -0,1 V , WE(1).Potential < -0,1 V , WE(1).Potential < -0,1 V , WE(1).Potential < -0,1 V
177.52981255178;0.74371337890625;0.199999999495049;2;-7.8338623046875E-05;10 mA;
177.729812551275;0.7220458984375;0.399999998990097;3;-7.75756835937499E-05;10 mA;
177.92981255077;0.70404052734375;0.599999998485146;4;-7.720947265625E-05;10 mA;
178.129812550265;0.68817138671875;0.799999997980194;5;-7.85217285156251E-05;10 mA;
178.329812549761;0.673828125;0.999999997475243;6;-7.7362060546875E-05;10 mA;
178.529812549256;0.66070556640625;1.19999999697029;7;-7.977294921875E-05;10 mA;
178.729812548751;0.64849853515625;1.39999999646534;8;-7.965087890625E-05;10 mA;
178.929812548246;0.63720703125;1.59999999596039;9;-7.647705078125E-05;10 mA;
179.129812547741;0.626220703125;1.79999999545544;10;-7.659912109375E-05;10 mA;
179.329812547236;0.61614990234375;1.99999999495049;11;-7.9345703125E-05;10 mA;
179.529812546731;0.60638427734375;2.19999999444553;12;-7.81860351562499E-05;10 mA;
179.729812546226;0.596923828125;2.39999999394058;13;-8.0230712890625E-05;10 mA;
179.929812545721;0.58807373046875;2.59999999343563;14;-7.6629638671875E-05;10 mA;
180.129812545216;0.5792236328125;2.79999999293068;15;-7.6324462890625E-05;10 mA;
180.329812544711;0.57098388671875;2.99999999242573;16;-7.8857421875E-05;10 mA;
180.529812544206;0.56304931640625;3.19999999192078;17;-7.66601562499999E-05;10 mA;
180.729812543701;0.55511474609375;3.39999999141583;18;-7.83691406250001E-05;10 mA;
180.929812543196;0.5474853515625;3.59999999091087;19;-8.02001953125001E-05;10 mA;
181.129812542691;0.5401611328125;3.79999999040592;20;-7.916259765625E-05;10 mA;
181.329812542186;0.5328369140625;3.99999998990097;21;-7.9986572265625E-05;10 mA;
181.529812541681;0.52581787109375;4.19999998939602;22;-7.781982421875E-05;10 mA;
181.729812541176;0.51910400390625;4.39999998889107;23;-7.7178955078125E-05;10 mA;
181.929812540671;0.51239013671875;4.59999998838612;24;-7.904052734375E-05;10 mA;
182.129812540166;0.5059814453125;4.79999998788116;25;-8.09631347656251E-05;10 mA;
182.329812539661;0.49957275390625;4.99999998737621;26;-7.8582763671875E-05;10 mA;
182.529812539157;0.49346923828125;5.19999998687126;27;-7.8582763671875E-05;10 mA;
182.729812538652;0.487396240234375;5.39999998636631;28;-7.60803222656251E-05;10 mA;
182.929812538147;0.48150634765625;5.59999998586136;29;-7.6324462890625E-05;10 mA;
183.129812537642;0.475799560546875;5.79999998535641;30;-7.6568603515625E-05;10 mA;
183.329812537137;0.470123291015625;5.99999998485146;31;-7.830810546875E-05;10 mA;
183.529812536632;0.464630126953125;6.1999999843465;32;-7.708740234375E-05;10 mA;
183.729812536127;0.459259033203125;6.39999998384155;33;-7.94677734375E-05;10 mA;
183.929812535622;0.4539794921875;6.5999999833366;34;-8.0078125E-05;10 mA;
184.129812535117;0.4488525390625;6.79999998283165;35;-7.6263427734375E-05;10 mA;
184.329812534612;0.443878173828125;6.9999999823267;36;-7.85217285156251E-05;10 mA;
184.529812534107;0.43896484375;7.19999998182175;37;-7.6324462890625E-05;10 mA;
184.729812533602;0.434173583984375;7.3999999813168;38;-7.69958496093751E-05;10 mA;
184.929812533097;0.42950439453125;7.59999998081184;39;-7.7667236328125E-05;10 mA;
185.129812532592;0.4249267578125;7.79999998030689;40;-7.9193115234375E-05;10 mA;
185.329812532087;0.42047119140625;7.99999997980194;41;-7.94677734375E-05;10 mA;
185.529812531582;0.416107177734375;8.19999997929699;42;-7.8582763671875E-05;10 mA;
185.729812531077;0.411865234375;8.39999997879204;43;-7.67822265625E-05;10 mA;
185.929812530572;0.40771484375;8.59999997828709;44;-7.80334472656249E-05;10 mA;
186.129812530067;0.403656005859375;8.79999997778214;45;-8.04443359375E-05;10 mA;
186.329812529562;0.399658203125;8.99999997727718;46;-7.855224609375E-05;10 mA;
186.529812529057;0.395721435546875;9.19999997677223;47;-8.0108642578125E-05;10 mA;
186.729812528553;0.391937255859375;9.39999997626728;48;-7.62023925781249E-05;10 mA;
186.929812528048;0.38818359375;9.59999997576233;49;-8.02001953125001E-05;10 mA;
187.129812527543;0.384490966796875;9.79999997525738;50;-7.8155517578125E-05;10 mA;
187.329812527038;0.380889892578125;9.99999997475243;51;-7.830810546875E-05;10 mA;
187.529812526533;0.377349853515625;10.1999999742475;52;-7.8704833984375E-05;10 mA;
187.729812526028;0.373870849609375;10.3999999737425;53;-7.9315185546875E-05;10 mA;
187.929812525523;0.370452880859375;10.5999999732376;54;-7.9681396484375E-05;10 mA;
188.129812525018;0.367095947265625;10.7999999727326;55;-7.672119140625E-05;10 mA;
188.329812524513;0.36376953125;10.9999999722277;56;-7.6416015625E-05;10 mA;
188.529812524008;0.36053466796875;11.1999999717227;57;-7.89794921875001E-05;10 mA;
188.729812523503;0.357330322265625;11.3999999712178;58;-7.68432617187501E-05;10 mA;
188.929812522998;0.35418701171875;11.5999999707128;59;-7.9345703125E-05;10 mA;
189.129812522493;0.35107421875;11.7999999702079;60;-7.89794921875001E-05;10 mA;
189.329812521988;0.3480224609375;11.9999999697029;61;-8.0230712890625E-05;10 mA;
189.529812521483;0.344970703125;12.199999969198;62;-8.026123046875E-05;10 mA;
189.729812520978;0.341949462890625;12.399999968693;63;-8.0291748046875E-05;10 mA;
189.929812520473;0.338958740234375;12.5999999681881;64;-8.013916015625E-05;10 mA;
190.129812519968;0.336029052734375;12.7999999676831;65;-8.0535888671875E-05;10 mA;
190.329812519463;0.3331298828125;12.9999999671782;66;-7.9315185546875E-05;10 mA;
190.529812518958;0.330230712890625;13.1999999666732;67;-8.07800292968749E-05;10 mA;
190.729812518454;0.327423095703125;13.3999999661683;68;-7.9681396484375E-05;10 mA;
190.929812517949;0.3245849609375;13.5999999656633;69;-7.79113769531251E-05;10 mA;
191.129812517444;0.321807861328125;13.7999999651583;70;-7.708740234375E-05;10 mA;
191.329812516939;0.31903076171875;13.9999999646534;71;-7.86437988281249E-05;10 mA;
191.529812516434;0.3162841796875;14.1999999641484;72;-7.9681396484375E-05;10 mA;
191.729812515929;0.313568115234375;14.3999999636435;73;-7.9498291015625E-05;10 mA;
191.929812515424;0.31085205078125;14.5999999631385;74;-7.9833984375E-05;10 mA;
192.129812514919;0.30816650390625;14.7999999626336;75;-7.92541503906249E-05;10 mA;
192.329812514414;0.305511474609375;14.9999999621286;76;-7.9498291015625E-05;10 mA;
192.529812513909;0.302825927734375;15.1999999616237;77;-7.89794921875001E-05;10 mA;
192.729812513404;0.3001708984375;15.3999999611187;78;-7.8338623046875E-05;10 mA;
192.929812512899;0.297576904296875;15.5999999606138;79;-8.013916015625E-05;10 mA;
193.129812512394;0.29498291015625;15.7999999601088;80;-8.03527832031251E-05;10 mA;
193.329812511889;0.292388916015625;15.9999999596039;81;-7.7789306640625E-05;10 mA;
193.529812511384;0.289825439453125;16.1999999590989;82;-7.82470703125E-05;10 mA;
193.729812510879;0.287261962890625;16.399999958594;83;-7.8704833984375E-05;10 mA;
193.929812510374;0.28466796875;16.599999958089;84;-8.06274414062499E-05;10 mA;
194.129812509869;0.282135009765625;16.7999999575841;85;-7.8582763671875E-05;10 mA;
194.329812509364;0.27960205078125;16.9999999570791;86;-7.97424316406251E-05;10 mA;
194.529812508859;0.277069091796875;17.1999999565742;87;-7.9345703125E-05;10 mA;
194.729812508354;0.274566650390625;17.3999999560692;88;-7.965087890625E-05;10 mA;
194.92981250785;0.27203369140625;17.5999999555643;89;-7.781982421875E-05;10 mA;
195.129812507345;0.269500732421875;17.7999999550593;90;-8.06884765625E-05;10 mA;
195.32981250684;0.26702880859375;17.9999999545544;91;-7.916259765625E-05;10 mA;
195.529812506335;0.2645263671875;18.1999999540494;92;-8.10852050781249E-05;10 mA;
195.72981250583;0.26202392578125;18.3999999535445;93;-7.72705078124999E-05;10 mA;
195.929812505325;0.259552001953125;18.5999999530395;94;-8.087158203125E-05;10 mA;
196.12981250482;0.257080078125;18.7999999525346;95;-7.904052734375E-05;10 mA;
196.329812504315;0.254638671875;18.9999999520296;96;-7.9803466796875E-05;10 mA;
196.52981250381;0.252166748046875;19.1999999515247;97;-7.7728271484375E-05;10 mA;
196.729812503305;0.249664306640625;19.3999999510197;98;-8.05053710937501E-05;10 mA;
196.9298125028;0.247222900390625;19.5999999505148;99;-8.04443359375E-05;10 mA;
197.129812502295;0.244781494140625;19.7999999500098;100;-8.08105468750001E-05;10 mA;
197.32981250179;0.242340087890625;19.9999999495049;101;-8.07800292968749E-05;10 mA;
197.529812501285;0.23992919921875;20.1999999489999;102;-7.86437988281249E-05;10 mA;
197.72981250078;0.237518310546875;20.399999948495;103;-7.720947265625E-05;10 mA;
197.929812500275;0.235076904296875;20.59999994799;104;-8.0169677734375E-05;10 mA;
198.12981249977;0.232696533203125;20.799999947485;105;-7.80334472656249E-05;10 mA;
198.329812499265;0.230255126953125;20.9999999469801;106;-7.9498291015625E-05;10 mA;
198.52981249876;0.22784423828125;21.1999999464751;107;-7.6873779296875E-05;10 mA;
198.729812498255;0.225433349609375;21.3999999459702;108;-7.82165527343751E-05;10 mA;
198.929812497751;0.2230224609375;21.5999999454652;109;-7.8338623046875E-05;10 mA;
199.129812497246;0.220611572265625;21.7999999449603;110;-7.71179199218749E-05;10 mA;
199.329812496741;0.218231201171875;21.9999999444553;111;-7.74230957031249E-05;10 mA;
199.529812496236;0.21588134765625;22.1999999439504;112;-7.97424316406251E-05;10 mA;
199.729812495731;0.213470458984375;22.3999999434454;113;-7.9620361328125E-05;10 mA;
199.929812495226;0.211090087890625;22.5999999429405;114;-7.916259765625E-05;10 mA;
200.129812494721;0.208740234375;22.7999999424355;115;-7.843017578125E-05;10 mA;
200.329812494216;0.206329345703125;22.9999999419306;116;-7.86743164062501E-05;10 mA;
200.529812493711;0.2039794921875;23.1999999414256;117;-7.71179199218749E-05;10 mA;
200.729812493206;0.201629638671875;23.3999999409207;118;-7.904052734375E-05;10 mA;
200.929812492701;0.19927978515625;23.5999999404157;119;-7.6751708984375E-05;10 mA;
201.129812492196;0.196929931640625;23.7999999399108;120;-8.0596923828125E-05;10 mA;
201.329812491691;0.194580078125;23.9999999394058;121;-7.8704833984375E-05;10 mA;
201.529812491186;0.192230224609375;24.1999999389009;122;-8.08105468750001E-05;10 mA;
201.729812490681;0.18988037109375;24.3999999383959;123;-7.9925537109375E-05;10 mA;
201.929812490176;0.187530517578125;24.599999937891;124;-7.98950195312501E-05;10 mA;
202.129812489671;0.185211181640625;24.799999937386;125;-7.9681396484375E-05;10 mA;
202.329812489166;0.182891845703125;24.9999999368811;126;-7.8704833984375E-05;10 mA;
202.529812488661;0.180572509765625;25.1999999363761;127;-7.95898437500001E-05;10 mA;
202.729812488156;0.178253173828125;25.3999999358712;128;-7.952880859375E-05;10 mA;
202.929812487651;0.175933837890625;25.5999999353662;129;-7.8460693359375E-05;10 mA;
203.129812487147;0.173583984375;25.7999999348613;130;-7.9498291015625E-05;10 mA;
203.329812486642;0.171295166015625;25.9999999343563;131;-7.94067382812499E-05;10 mA;
203.529812486137;0.16900634765625;26.1999999338514;132;-7.916259765625E-05;10 mA;
203.729812485632;0.166717529296875;26.3999999333464;133;-7.952880859375E-05;10 mA;
203.929812485127;0.16436767578125;26.5999999328415;134;-7.861328125E-05;10 mA;
204.129812484622;0.162078857421875;26.7999999323365;135;-8.03222656249999E-05;10 mA;
204.329812484117;0.159759521484375;26.9999999318316;136;-7.916259765625E-05;10 mA;
204.529812483612;0.157440185546875;27.1999999313266;137;-8.03222656249999E-05;10 mA;
204.729812483107;0.155181884765625;27.3999999308217;138;-8.11767578125E-05;10 mA;
204.929812482602;0.152862548828125;27.5999999303167;139;-8.06274414062499E-05;10 mA;
205.129812482097;0.15057373046875;27.7999999298117;140;-7.9559326171875E-05;10 mA;
205.329812481592;0.148284912109375;27.9999999293068;141;-7.76062011718751E-05;10 mA;
205.529812481087;0.14599609375;28.1999999288018;142;-8.1451416015625E-05;10 mA;
205.729812480582;0.14373779296875;28.3999999282969;143;-7.6751708984375E-05;10 mA;
205.929812480077;0.141448974609375;28.5999999277919;144;-8.0535888671875E-05;10 mA;
206.129812479572;0.139190673828125;28.799999927287;145;-8.12683105468751E-05;10 mA;
206.329812479067;0.13690185546875;28.999999926782;146;-7.94372558593751E-05;10 mA;
206.529812478562;0.134613037109375;29.1999999262771;147;-7.586669921875E-05;10 mA;
206.729812478057;0.13232421875;29.3999999257721;148;-8.12377929687499E-05;10 mA;
206.929812477552;0.13006591796875;29.5999999252672;149;-7.9986572265625E-05;10 mA;
207.129812477047;0.1278076171875;29.7999999247622;150;-8.03222656249999E-05;10 mA;
207.329812476543;0.12554931640625;29.9999999242573;151;-8.1756591796875E-05;10 mA;
207.529812476038;0.123321533203125;30.1999999237523;152;-7.92846679687501E-05;10 mA;
207.729812475533;0.121063232421875;30.3999999232474;153;-7.91015624999999E-05;10 mA;
207.929812475028;0.11883544921875;30.5999999227424;154;-7.8399658203125E-05;10 mA;
208.129812474523;0.116607666015625;30.7999999222375;155;-8.1207275390625E-05;10 mA;
208.329812474018;0.1143798828125;30.9999999217325;156;-7.75756835937499E-05;10 mA;
208.529812473513;0.112152099609375;31.1999999212276;157;-7.7667236328125E-05;10 mA;
208.729812473008;0.10992431640625;31.3999999207226;158;-7.763671875E-05;10 mA;
208.929812472503;0.10772705078125;31.5999999202177;159;-7.84912109374999E-05;10 mA;
209.129812471998;0.10546875;31.7999999197127;160;-7.8704833984375E-05;10 mA;
209.329812471493;0.103271484375;31.9999999192078;161;-7.92846679687501E-05;10 mA;
209.529812470988;0.10107421875;32.1999999187028;162;-7.82165527343751E-05;10 mA;
209.729812470483;0.098907470703125;32.3999999181979;163;-8.10852050781249E-05;10 mA;
209.929812469978;0.09674072265625;32.5999999176929;164;-8.02001953125001E-05;10 mA;
210.129812469473;0.0946044921875;32.799999917188;165;-7.80029296875E-05;10 mA;
210.329812468968;0.092437744140625;32.999999916683;166;-7.77587890625001E-05;10 mA;
210.529812468463;0.09027099609375;33.1999999161781;167;-8.099365234375E-05;10 mA;
210.729812467958;0.088134765625;33.3999999156731;168;-7.8857421875E-05;10 mA;
210.929812467453;0.085968017578125;33.5999999151682;169;-7.952880859375E-05;10 mA;
211.129812466948;0.083831787109375;33.7999999146632;170;-7.977294921875E-05;10 mA;
211.329812466444;0.08172607421875;33.9999999141583;171;-7.9803466796875E-05;10 mA;
211.529812465939;0.079559326171875;34.1999999136533;172;-7.8582763671875E-05;10 mA;
211.729812465434;0.0775146484375;34.3999999131483;173;-7.9193115234375E-05;10 mA;
211.929812464929;0.075408935546875;34.5999999126434;174;-8.038330078125E-05;10 mA;
212.129812464424;0.07330322265625;34.7999999121384;175;-7.80334472656249E-05;10 mA;
212.329812463919;0.071197509765625;34.9999999116335;176;-7.8948974609375E-05;10 mA;
212.529812463414;0.06915283203125;35.1999999111285;177;-7.9071044921875E-05;10 mA;
212.729812462909;0.067108154296875;35.3999999106236;178;-7.86743164062501E-05;10 mA;
212.929812462404;0.0650634765625;35.5999999101186;179;-8.03222656249999E-05;10 mA;
213.129812461899;0.063018798828125;35.7999999096137;180;-7.9803466796875E-05;10 mA;
213.329812461394;0.061004638671875;35.9999999091087;181;-7.80639648437501E-05;10 mA;
213.529812460889;0.058990478515625;36.1999999086038;182;-7.92236328125E-05;10 mA;
213.729812460384;0.0570068359375;36.3999999080988;183;-8.03527832031251E-05;10 mA;
213.929812459879;0.054962158203125;36.5999999075939;184;-7.94067382812499E-05;10 mA;
214.129812459374;0.052947998046875;36.7999999070889;185;-8.04748535156249E-05;10 mA;
214.329812458869;0.05096435546875;36.999999906584;186;-7.82470703125E-05;10 mA;
214.529812458364;0.0489349365234375;37.199999906079;187;-7.80029296875E-05;10 mA;
214.729812457859;0.04696044921875;37.3999999055741;188;-7.8582763671875E-05;10 mA;
214.929812457354;0.0450103759765625;37.5999999050691;189;-7.794189453125E-05;10 mA;
215.129812456849;0.04305419921875;37.7999999045642;190;-7.87353515625E-05;10 mA;
215.329812456344;0.041143798828125;37.9999999040592;191;-8.02001953125001E-05;10 mA;
215.52981245584;0.0392364501953125;38.1999999035543;192;-7.8948974609375E-05;10 mA;
215.729812455335;0.0373748779296875;38.3999999030493;193;-7.9925537109375E-05;10 mA;
215.92981245483;0.035528564453125;38.5999999025444;194;-7.77587890625001E-05;10 mA;
216.129812454325;0.0336639404296875;38.7999999020394;195;-7.9071044921875E-05;10 mA;
216.32981245382;0.0317840576171875;38.9999999015345;196;-7.94677734375E-05;10 mA;
216.529812453315;0.0299163818359375;39.1999999010295;197;-7.9681396484375E-05;10 mA;
216.72981245281;0.0281005859375;39.3999999005246;198;-7.99560546875E-05;10 mA;
216.929812452305;0.02628173828125;39.5999999000196;199;-8.03527832031251E-05;10 mA;
217.1298124518;0.024456787109375;39.7999998995147;200;-8.13903808593749E-05;10 mA;
217.329812451295;0.0226531982421875;39.9999998990097;201;-7.9071044921875E-05;10 mA;
217.52981245079;0.020855712890625;40.1999998985048;202;-7.8399658203125E-05;10 mA;
217.729812450285;0.019085693359375;40.3999998979998;203;-7.94067382812499E-05;10 mA;
217.92981244978;0.017315673828125;40.5999998974949;204;-7.89794921875001E-05;10 mA;
218.129812449275;0.01556396484375;40.7999998969899;205;-7.8460693359375E-05;10 mA;
218.32981244877;0.0138336181640625;40.999999896485;206;-7.7545166015625E-05;10 mA;
218.529812448265;0.0121002197265625;41.19999989598;207;-7.89794921875001E-05;10 mA;
218.72981244776;0.0103912353515625;41.399999895475;208;-7.80029296875E-05;10 mA;
218.929812447255;0.00869140625000001;41.5999998949701;209;-8.0535888671875E-05;10 mA;
219.12981244675;0.00700988769531249;41.7999998944651;210;-8.13903808593749E-05;10 mA;
219.329812446245;0.00534667968749999;41.9999998939602;211;-7.965087890625E-05;10 mA;
219.529812445741;0.0037078857421875;42.1999998934552;212;-7.9559326171875E-05;10 mA;
219.729812445236;0.002032470703125;42.3999998929503;213;-8.06579589843751E-05;10 mA;
219.929812444731;0.000390625000000006;42.5999998924453;214;-7.8125E-05;10 mA;
220.129812444226;-0.0012359619140625;42.7999998919404;215;-8.0902099609375E-05;10 mA;
220.329812443721;-0.00286865234375;42.9999998914354;216;-7.74536132812501E-05;10 mA;
220.529812443216;-0.004473876953125;43.1999998909305;217;-8.09631347656251E-05;10 mA;
220.729812442711;-0.00608215332031251;43.3999998904255;218;-7.65075683593749E-05;10 mA;
220.929812442206;-0.007672119140625;43.5999998899206;219;-7.80029296875E-05;10 mA;
221.129812441701;-0.0092193603515625;43.7999998894156;220;-7.83691406250001E-05;10 mA;
221.329812441196;-0.010760498046875;43.9999998889107;221;-7.84912109374999E-05;10 mA;
221.529812440691;-0.012225341796875;44.1999998884057;222;-7.99560546875E-05;10 mA;
221.729812440186;-0.0137298583984375;44.3999998879008;223;-7.91015624999999E-05;10 mA;
221.929812439681;-0.0152435302734375;44.5999998873958;224;-8.13903808593749E-05;10 mA;
222.129812439176;-0.0167510986328125;44.7999998868909;225;-8.0291748046875E-05;10 mA;
222.329812438671;-0.0182220458984375;44.9999998863859;226;-7.85217285156251E-05;10 mA;
222.529812438166;-0.0196746826171875;45.199999885881;227;-8.12683105468751E-05;10 mA;
222.729812437661;-0.0211090087890625;45.399999885376;228;-7.7178955078125E-05;10 mA;
222.929812437156;-0.0225616455078125;45.5999998848711;229;-7.74536132812501E-05;10 mA;
223.129812436651;-0.024005126953125;45.7999998843661;230;-8.0078125E-05;10 mA;
223.329812436146;-0.02540283203125;45.9999998838612;231;-8.056640625E-05;10 mA;
223.529812435641;-0.0267974853515625;46.1999998833562;232;-7.8857421875E-05;10 mA;
223.729812435137;-0.02818603515625;46.3999998828513;233;-7.92541503906249E-05;10 mA;
223.929812434632;-0.029534912109375;46.5999998823463;234;-8.05053710937501E-05;10 mA;
224.129812434127;-0.0308807373046875;46.7999998818414;235;-8.10546875E-05;10 mA;
224.329812433622;-0.032244873046875;46.9999998813364;236;-8.10546875E-05;10 mA;
224.529812433117;-0.0335601806640625;47.1999998808315;237;-7.82470703125E-05;10 mA;
224.729812432612;-0.034881591796875;47.3999998803265;238;-7.8399658203125E-05;10 mA;
224.929812432107;-0.0361968994140625;47.5999998798216;239;-7.781982421875E-05;10 mA;
225.129812431602;-0.037506103515625;47.7999998793166;240;-7.8399658203125E-05;10 mA;
225.329812431097;-0.038751220703125;47.9999998788116;241;-8.0078125E-05;10 mA;
225.529812430592;-0.0400054931640625;48.1999998783067;242;-8.1024169921875E-05;10 mA;
225.729812430087;-0.041241455078125;48.3999998778017;243;-7.9559326171875E-05;10 mA;
225.929812429582;-0.0425048828125;48.5999998772968;244;-7.95898437500001E-05;10 mA;
226.129812429077;-0.0437225341796875;48.7999998767918;245;-7.88269042968751E-05;10 mA;
226.329812428572;-0.044989013671875;48.9999998762869;246;-8.099365234375E-05;10 mA;
226.529812428067;-0.0461669921875;49.1999998757819;247;-8.14208984375001E-05;10 mA;
226.729812427562;-0.0473846435546875;49.399999875277;248;-7.769775390625E-05;10 mA;
226.929812427057;-0.0485748291015625;49.599999874772;249;-7.9193115234375E-05;10 mA;
227.129812426552;-0.049749755859375;49.7999998742671;250;-8.0596923828125E-05;10 mA;
227.329812426047;-0.050933837890625;49.9999998737621;251;-7.91015624999999E-05;10 mA;
227.529812425542;-0.05206298828125;50.1999998732572;252;-7.9833984375E-05;10 mA;
227.729812425037;-0.05316162109375;50.3999998727522;253;-7.87963867187499E-05;10 mA;
227.929812424533;-0.054229736328125;50.5999998722473;254;-8.06579589843751E-05;10 mA;
228.129812424028;-0.055267333984375;50.7999998717423;255;-7.8765869140625E-05;10 mA;
228.329812423523;-0.056365966796875;50.9999998712374;256;-7.855224609375E-05;10 mA;
228.529812423018;-0.05743408203125;51.1999998707324;257;-7.891845703125E-05;10 mA;
228.729812422513;-0.058502197265625;51.3999998702275;258;-7.84912109374999E-05;10 mA;
228.929812422008;-0.059539794921875;51.5999998697225;259;-8.099365234375E-05;10 mA;
229.129812421503;-0.060546875;51.7999998692176;260;-8.12683105468751E-05;10 mA;
229.329812420998;-0.06158447265625;51.9999998687126;261;-8.1146240234375E-05;10 mA;
229.529812420493;-0.06256103515625;52.1999998682077;262;-8.03527832031251E-05;10 mA;
229.729812419988;-0.06353759765625;52.3999998677027;263;-7.843017578125E-05;10 mA;
229.929812419483;-0.064483642578125;52.5999998671978;264;-8.13903808593749E-05;10 mA;
230.129812418978;-0.0654296875;52.7999998666928;265;-7.586669921875E-05;10 mA;
230.329812418473;-0.066375732421875;52.9999998661879;266;-7.855224609375E-05;10 mA;
230.529812417968;-0.067291259765625;53.1999998656829;267;-7.87353515625E-05;10 mA;
230.729812417463;-0.068206787109375;53.399999865178;268;-7.95898437500001E-05;10 mA;
230.929812416958;-0.069091796875;53.599999864673;269;-7.5836181640625E-05;10 mA;
231.129812416453;-0.069976806640625;53.7999998641681;270;-8.08105468750001E-05;10 mA;
231.329812415948;-0.07086181640625;53.9999998636631;271;-7.82470703125E-05;10 mA;
231.529812415443;-0.07171630859375;54.1999998631582;272;-8.0291748046875E-05;10 mA;
231.729812414938;-0.072601318359375;54.3999998626532;273;-8.11157226562501E-05;10 mA;
231.929812414434;-0.073455810546875;54.5999998621483;274;-7.76062011718751E-05;10 mA;
232.129812413929;-0.07427978515625;54.7999998616433;275;-7.9193115234375E-05;10 mA;
232.329812413424;-0.07513427734375;54.9999998611383;276;-8.0078125E-05;10 mA;
232.529812412919;-0.075927734375;55.1999998606334;277;-7.74230957031249E-05;10 mA;
232.729812412414;-0.07672119140625;55.3999998601284;278;-8.02001953125001E-05;10 mA;
232.929812411909;-0.077545166015625;55.5999998596235;279;-7.75146484375E-05;10 mA;
233.129812411404;-0.078338623046875;55.7999998591185;280;-7.8338623046875E-05;10 mA;
233.329812410899;-0.0791015625;55.9999998586136;281;-7.82470703125E-05;10 mA;
233.529812410394;-0.079864501953125;56.1999998581086;282;-8.03222656249999E-05;10 mA;
233.729812409889;-0.08056640625;56.3999998576037;283;-7.7239990234375E-05;10 mA;
233.929812409384;-0.081298828125;56.5999998570987;284;-7.9345703125E-05;10 mA;
234.129812408879;-0.08203125;56.7999998565938;285;-7.9986572265625E-05;10 mA;
234.329812408374;-0.082733154296875;56.9999998560888;286;-7.763671875E-05;10 mA;
234.529812407869;-0.08343505859375;57.1999998555839;287;-8.056640625E-05;10 mA;
234.729812407364;-0.08416748046875;57.3999998550789;288;-7.91015624999999E-05;10 mA;
234.929812406859;-0.084869384765625;57.599999854574;289;-7.92846679687501E-05;10 mA;
235.129812406354;-0.085540771484375;57.799999854069;290;-7.8125E-05;10 mA;
235.329812405849;-0.08624267578125;57.9999998535641;291;-7.87963867187499E-05;10 mA;
235.529812405344;-0.086883544921875;58.1999998530591;292;-7.98645019531249E-05;10 mA;
235.729812404839;-0.08758544921875;58.3999998525542;293;-7.97119140624999E-05;10 mA;
235.929812404334;-0.088226318359375;58.5999998520492;294;-7.97119140624999E-05;10 mA;
236.12981240383;-0.0888671875;58.7999998515443;295;-7.72705078124999E-05;10 mA;
236.329812403325;-0.089508056640625;58.9999998510393;296;-7.76062011718751E-05;10 mA;
236.52981240282;-0.09014892578125;59.1999998505344;297;-7.74536132812501E-05;10 mA;
236.729812402315;-0.090789794921875;59.3999998500294;298;-8.0902099609375E-05;10 mA;
236.92981240181;-0.091400146484375;59.5999998495245;299;-8.10546875E-05;10 mA;
237.129812401305;-0.092041015625;59.7999998490195;300;-7.769775390625E-05;10 mA;
237.3298124008;-0.092681884765625;59.9999998485146;301;-7.77587890625001E-05;10 mA;
237.529812400295;-0.09326171875;60.1999998480096;302;-7.9681396484375E-05;10 mA;
237.72981239979;-0.093841552734375;60.3999998475047;303;-7.843017578125E-05;10 mA;
237.929812399285;-0.094451904296875;60.5999998469997;304;-7.8125E-05;10 mA;
238.12981239878;-0.09503173828125;60.7999998464948;305;-7.9559326171875E-05;10 mA;
238.329812398275;-0.0955810546875;60.9999998459898;306;-7.95898437500001E-05;10 mA;
238.52981239777;-0.09613037109375;61.1999998454849;307;-7.97119140624999E-05;10 mA;
238.729812397265;-0.096710205078125;61.3999998449799;308;-7.75756835937499E-05;10 mA;
238.92981239676;-0.097259521484375;61.599999844475;309;-7.9071044921875E-05;10 mA;
239.129812396255;-0.09783935546875;61.79999984397;310;-7.9803466796875E-05;10 mA;
239.32981239575;-0.098388671875;61.999999843465;311;-7.89794921875001E-05;10 mA;
239.529812395245;-0.098876953125;62.1999998429601;312;-7.85217285156251E-05;10 mA;
239.72981239474;-0.099395751953125;62.3999998424551;313;-8.056640625E-05;10 mA;
239.929812394235;-0.099884033203125;62.5999998419502;314;-7.86743164062501E-05;10 mA;
240.129812393731;-0.100372314453125;62.7999998414452;315;-7.7362060546875E-05;10 mA;WE(1).Potential < -0,1 V
240.329812393226;-0.10089111328125;62.9999998409403;316;-8.056640625E-05;10 mA;WE(1).Potential < -0,1 V
240.529812392721;-0.101348876953125;63.1999998404353;317;-7.80334472656249E-05;10 mA;WE(1).Potential < -0,1 V
240.729812392216;-0.10186767578125;63.3999998399304;318;-7.916259765625E-05;10 mA;WE(1).Potential < -0,1 V
